Date,Return
20170102,0.0
20170103,0.4249291784702509
20170104,-6.2588904694167935
20170105,-3.6144578313253053
20170106,2.3255813953488516
20170109,-0.2645502645502683
20170110,-0.1319261213720429
20170111,-5.270092226613966
20170112,3.879849812265342
20170113,0.39062499999999634
20170116,-0.6535947712418301
20170117,1.6883116883116847
20170118,-1.5852047556142705
20170119,0.3901170351105479
20170120,2.219321148825051
20170123,-0.4005340453938547
20170124,1.0638297872340388
20170125,1.2096774193548463
20170127,1.9047619047619126
20170130,10.402219140083218
20170131,-2.1671826625387087
20170201,0.15151515151514292
20170202,-1.6691957511380793
20170203,-0.7462686567164178
20170206,-2.8148148148148233
20170207,0.2881844380403499
20170208,0.7225433526011561
20170209,-4.803493449781655
20170210,-0.138888888888881
20170213,1.2482662968099745
20170214,0.8426966292134951
20170215,4.107648725212453
20170216,0.14771048744462115
20170217,0.29585798816566367
20170220,-0.44510385756676135
20170221,0.7385524372230428
20170222,3.1250000000000124
20170223,1.996927803379412
20170227,-0.47021943573667274
20170228,-0.46801872074884776
20170301,-2.329192546583851
20170302,-1.8209408194233514
20170303,-0.2980625931445646
20170306,3.5661218424962726
20170307,0.46224961479200516
20170308,1.8575851393188791
20170309,1.8927444794952615
20170310,-0.6430868167202549
20170314,-0.31948881789136696
20170315,-1.5923566878980893
20170316,-0.3134796238244559
20170317,0.31250000000000444
20170320,-0.3134796238244559
20170321,-0.15624999999999112
20170322,2.3400936037441387
20170323,-3.354632587859427
20170324,-1.391035548686231
20170327,0.6097560975609627
20170328,0.7668711656441718
20170329,1.8547140649149967
20170330,-4.881889763779519
20170331,1.3513513513513387
20170403,0.0
20170405,0.76103500761035
20170406,-1.2269938650306704
20170407,4.393939393939392
20170410,-2.218700475435814
20170411,0.0
20170412,2.015503875968988
20170413,0.9493670886075972
20170417,1.5974440894568689
20170418,2.5974025974025996
20170419,0.16666666666666904
20170420,-0.16694490818030286
20170421,-2.166666666666662
20170424,2.2838499184339294
20170425,4.173622704507513
20170426,-0.8710801393728222
20170427,-0.1727115716753047
20170428,0.0
20170502,-0.6896551724137907
20170503,0.8561643835616438
20170504,-0.6908462867012065
20170505,0.8576329331046313
20170508,-0.8650519031141869
20170509,-0.8576329331046313
20170510,-4.421768707482996
20170511,-1.6286644951140066
20170512,0.16025641025641252
20170515,3.8523274478330634
20170516,0.6677796327211997
20170517,0.5042016806722641
20170518,1.5202702702702797
20170519,0.8576329331046313
20170522,0.8650519031141869
20170523,2.0942408376963275
20170524,2.4955436720142576
20170525,-3.8391224862888373
20170526,-1.2323943661971881
20170529,-0.695652173913041
20170530,4.663212435233153
20170531,-0.9057971014492754
20170601,2.1543985637342957
20170602,-0.7339449541284377
20170605,-0.5464480874317018
20170606,1.086956521739133
20170607,0.73260073260073
20170608,2.952029520295205
20170609,-2.4714828897338346
20170612,0.0
20170613,-3.710575139146568
20170614,3.0411449016100103
20170615,0.7380073800738112
20170616,0.557620817843861
20170619,-0.3738317757009399
20170620,0.5586592178771029
20170621,0.5617977528089835
20170622,0.18832391713747915
20170623,2.07547169811321
20170627,3.6608863198458548
20170628,2.200000000000003
20170629,-0.4089979550102308
20170630,1.8329938900203637
20170703,-1.0373443983402488
20170704,-1.2320328542094339
20170705,-2.028397565922921
20170706,0.0
20170707,-0.39761431411531384
20170710,0.5940594059405885
20170711,1.9920318725099602
20170712,0.0
20170713,0.20325203252032809
20170714,-1.6293279022403202
20170717,-2.6052104208416917
20170718,2.9296875
20170719,1.8108651911468925
20170720,-2.0491803278688527
20170721,0.6024096385542111
20170724,-0.20202020202020488
20170725,0.0
20170726,1.0080645161290323
20170727,3.462321792260698
20170728,2.109704641350211
20170731,0.8620689655172384
20170801,-1.7391304347826024
20170802,1.4957264957264869
20170803,2.81995661605207
20170804,1.5624999999999907
20170807,0.45351473922903135
20170808,4.328018223234621
20170809,2.380952380952381
20170810,4.390243902439018
20170811,-1.5306122448979447
20170814,-18.84422110552764
20170816,-14.799154334038056
20170817,-2.7624309392265194
20170818,1.2544802867383438
20170821,3.266787658802185
20170822,9.005628517823636
20170823,1.6494845360824684
20170824,0.0
20170828,1.2578616352201286
20170829,0.4246284501061632
20170830,1.0660980810234542
20170831,1.5086206896551633
20170901,-3.0634573304157517
20170904,-3.821656050955408
20170905,-0.2044989775051154
20170906,2.2448979591836764
20170907,0.6263048016701402
20170908,-0.8403361344537785
20170911,1.250000000000003
20170912,0.0
20170913,0.21097046413502413
20170914,-0.6342494714587829
20170915,-3.3613445378151288
20170918,0.8130081300813123
20170919,-10.04098360655739
20170920,1.1173184357541925
20170921,3.5781544256120497
20170922,5.859375
20170925,1.659751037344407
20170926,-2.5316455696202596
20170927,0.4115226337448618
20170928,0.0
20170929,2.479338842975198
20171003,1.4830508474576332
20171004,-19.569892473118284
20171005,8.453237410071948
20171006,-2.357563850687628
20171009,1.5355086372360927
20171010,0.3898635477582763
20171011,1.76125244618395
20171012,0.9960159362549801
20171013,-3.219315895372222
20171016,4.288499025341123
20171017,-5.906313645621178
20171018,-1.1538461538461564
20171019,2.661596958174902
20171023,2.5390625000000084
20171024,-1.2024048096192415
20171025,-0.39603960396040166
20171026,1.1834319526627246
20171027,-0.19960079840319644
20171030,-1.1952191235059646
20171031,0.7874015748031469
20171101,0.39682539682538837
20171102,-2.191235059760945
20171103,-0.3898635477582902
20171106,0.38834951456311234
20171107,3.118908382066266
20171108,-3.822937625754524
20171109,1.5503875968992331
20171110,-0.984251968503937
20171113,-5.847953216374269
20171114,3.130755064456714
20171115,5.13307984790875
20171116,0.0
20171117,-0.20040080160320925
20171120,0.0
20171121,0.20000000000000281
20171122,-5.01002004008016
20171123,-2.8625954198473282
20171124,-0.3710575139146621
20171127,1.8484288354898335
20171128,0.0
20171129,1.5065913370998196
20171130,0.7648183556405327
20171201,0.38535645472060837
20171204,2.1276595744680877
20171205,0.5928853754940795
20171206,-3.9761431411530817
20171207,-3.0592734225621445
20171208,-3.8961038961038987
20171211,-4.285714285714283
20171212,4.45205479452055
20171213,3.0465949820788456
20171214,-2.0332717190388196
20171215,-0.18115942028984477
20171218,0.5424954792043348
20171219,-1.272727272727278
20171220,-0.5385996409335676
20171221,-2.6785714285714284
20171222,0.34782608695652667
20171226,-1.7452006980802792
20171227,1.2006861063464764
20171228,0.0
20171229,-1.2152777777777704
