Date,Return
20160101,0.0
20160104,0.18832391713747915
20160105,0.9433962264150944
20160106,-0.38095238095238637
20160107,4.9335863377609135
20160108,0.3992015968063929
20160111,4.008016032064128
20160112,1.8789144050104356
20160113,1.276595744680854
20160114,3.87931034482758
20160115,2.914798206278036
20160118,4.849884526558879
20160119,2.9126213592233077
20160120,5.0
20160121,4.9999999999999964
20160122,-4.986149584487527
20160125,-4.749340369393151
20160127,-4.785894206549115
20160128,-4.8076923076923075
20160129,-4.816513761467893
20160201,-4.814004376367605
20160202,-3.340292275574116
20160203,3.8383838383838356
20160204,-1.4705882352941086
20160205,3.31262939958591
20160208,1.070663811563169
20160209,0.0
20160210,4.978354978354988
20160211,4.7835990888382725
20160212,4.784688995215311
20160215,-4.773869346733683
20160216,-4.796163069544365
20160217,0.0
20160218,-1.1441647597254003
20160219,1.1312217194570136
20160222,0.0
20160223,-0.9153318077803171
20160224,-1.3605442176870781
20160225,-1.789709172259501
20160226,0.6593406593406531
20160229,0.22123893805310046
20160301,-3.9911308203991065
20160302,-4.904051172707899
20160303,2.845528455284564
20160304,-3.765690376569047
20160308,0.2016129032258093
20160309,-9.4949494949495
20160310,5.535055350553505
20160311,-4.296874999999992
20160314,1.1235955056179803
20160315,1.325757575757568
20160316,0.0
20160317,3.0710172744721715
20160318,-2.178217821782181
20160321,-2.5193798449612346
20160322,1.890359168241966
20160323,1.5414258188824608
20160328,1.3698630136986356
20160329,1.1904761904761934
20160330,-3.212851405622493
20160331,-0.7782101167315147
20160401,1.7374517374517346
20160404,0.7858546168958714
20160405,-2.7722772277227694
20160406,-1.5414258188824745
20160407,5.123339658444028
20160408,-0.40000000000000563
20160411,2.3904382470119576
20160412,1.2244897959183703
20160413,1.0330578512396695
20160418,3.1315240083507305
20160420,-2.801724137931044
20160421,1.2578616352201286
20160422,-0.2123142250530816
20160425,0.211864406779664
20160426,2.335456475583867
20160427,-1.956521739130432
20160428,3.6247334754797347
20160429,0.44247787610620093
20160502,-0.22222222222222537
20160503,-1.3303769401330408
20160504,0.0
20160505,-0.21881838074397003
20160506,1.7467248908296884
20160509,-3.111111111111108
20160510,-3.0172413793103416
20160511,1.882845188284516
20160512,-1.9189765458422146
20160513,3.347280334728022
20160516,-0.8658008658008627
20160517,-0.6437768240343286
20160518,1.4925373134328268
20160519,7.792207792207795
20160520,-2.8169014084506943
20160523,-1.82648401826485
20160524,-11.210762331838565
20160525,0.4032258064516186
20160526,5.870445344129552
20160527,0.4301075268817265
20160530,-1.5118790496760321
20160531,2.127659574468085
20160601,-6.739130434782611
20160602,-0.8146639511201601
20160603,2.0202020202020203
20160606,-3.0927835051546393
20160607,1.5999999999999945
20160608,0.6097560975609843
20160609,-1.8404907975460092
20160610,1.4056224899598309
20160613,2.4439918533604947
20160614,-0.8350730688935253
20160615,-6.211180124223603
20160616,1.559454191033133
20160617,0.0
20160620,0.39603960396040166
20160621,0.5964214711729565
20160622,1.0
20160623,0.20202020202020488
20160624,0.40485829959513314
20160627,0.40650406504065617
20160628,1.8367346938775482
20160629,-0.20790020790021085
20160630,-8.506224066390029
20160701,-0.7648183556405462
20160704,-0.18975332068310116
20160705,1.893939393939394
20160707,0.7722007722007695
20160708,0.5836575875486326
20160711,-1.3698630136986218
20160712,0.3861003861003779
20160713,0.0
20160714,0.3875968992248117
20160715,0.5836575875486326
20160718,1.3698630136986356
20160719,2.9761904761904763
20160720,1.2269938650306778
20160721,0.6211180124223544
20160722,-1.0416666666666665
20160725,1.0309278350515463
20160726,-0.20833333333333628
20160727,0.20790020790021085
20160728,0.624999999999994
20160729,0.0
20160801,-0.6289308176100569
20160802,0.624999999999994
20160803,1.4675052410901526
20160804,-1.276595744680854
20160805,1.0504201680672267
20160808,-0.4246284501061481
20160809,-0.42283298097252187
20160810,1.263157894736845
20160811,1.7057569296375208
20160812,-1.9522776572668081
20160816,0.0
20160817,1.7021276595744619
20160818,2.1645021645021645
20160819,-0.8849557522123862
20160822,-3.5087719298245648
20160823,1.4830508474576332
20160824,-2.5806451612903287
20160825,-5.0314465408805
20160826,-1.996007984031936
20160829,3.7181996086105644
20160830,0.20325203252032809
20160831,2.0366598778004072
20160901,1.871101871101868
20160902,-1.906779661016946
20160906,-2.0790020790020787
20160907,-10.794297352342152
20160908,-2.5735294117647034
20160909,6.810035842293901
20160912,2.307692307692313
20160914,-5.905511811023622
20160915,1.486988847583638
20160916,-2.6415094339622613
20160919,-1.102941176470591
20160920,4.3636363636363615
20160921,1.1406844106463905
20160922,-2.8846153846153846
20160923,0.5607476635513965
20160926,-0.5639097744360848
20160927,2.990654205607479
20160928,-0.9633911368015415
20160929,4.19847328244274
20160930,-1.5936254980079625
20161003,-0.7843137254901933
20161004,-2.7237354085603087
20161005,0.946969696969697
20161006,4.397705544933073
20161007,-4.799999999999997
20161010,-4.007633587786262
20161013,-1.1009174311926633
20161014,-4.537205081669692
20161017,2.2569444444444517
20161018,0.8880994671403198
20161019,0.0
20161020,0.5376344086021455
20161021,0.5405405405405355
20161024,-0.54347826086956
20161025,-4.504504504504505
20161026,2.9310344827586254
20161027,-0.355239786856133
20161028,0.7079646017699089
20161030,-0.35650623885917243
20161101,-6.394316163410305
20161102,-0.5008347245409086
20161103,-13.621262458471763
20161104,4.970760233918137
20161107,-0.9230769230769144
20161108,-0.15243902439025692
20161109,4.109589041095894
20161110,0.6349206349206327
20161111,5.111821086261985
20161115,3.8720538720538675
20161116,1.2259194395796897
20161117,3.368794326241132
20161118,0.0
20161121,4.036697247706427
20161122,-6.118546845124289
20161123,-4.504504504504505
20161124,0.17241379310345073
20161125,-0.1727115716753047
20161128,0.17241379310345073
20161129,-3.2815198618307404
20161130,-5.852842809364549
20161201,5.6872037914691855
20161202,2.345058626465671
20161205,1.886792452830179
20161206,-4.370629370629371
20161207,2.010050251256286
20161208,-20.000000000000004
20161209,-0.42735042735042333
20161212,3.6879432624113395
20161213,3.6818851251840936
20161214,-6.269113149847086
20161215,-4.460431654676251
20161216,2.479338842975203
20161219,0.423728813559318
20161220,3.4042553191489446
20161221,0.8810572687224587
20161222,1.777777777777782
20161223,0.7541478129713424
20161226,0.30395136778115933
20161227,-0.4573170731707491
20161228,-1.0622154779969477
20161229,-1.5015015015015016
20161230,-2.3668639053254568
