Date,Return
20170103,0.4006010884702509
20170104,-6.2832185594167935
20170105,-3.6384846213253055
20170106,2.3015546053488514
20170109,-0.28857705455026833
20170110,-0.1559529113720429
20170111,-5.294119016613966
20170112,3.855521722265342
20170113,0.3662969099999963
20170116,-0.6779228612418301
20170117,1.6639835983116846
20170118,-1.6095328456142706
20170119,0.3657889451105479
20170120,2.194993058825051
20170123,-0.4248621353938547
20170124,1.0395016972340387
20170125,1.1853493293548463
20170127,1.8805844347619127
20170130,10.378041670083219
20170131,-2.191360132538709
20170201,0.1273376815151429
20170202,-1.6932225411380792
20170203,-0.7702954467164178
20170206,-2.8388416048148235
20170207,0.26415764804034986
20170208,0.6985165626011561
20170209,-4.827218709781655
20170210,-0.162614148888881
20170213,1.2245410368099745
20170214,0.8189713692134951
20170215,4.083923465212453
20170216,0.12368369744462115
20170217,0.27183119816566365
20170220,-0.46913064756676137
20170221,0.7145256472230428
20170222,3.1009732100000122
20170223,1.973051753379412
20170227,-0.4940954857366727
20170228,-0.49189477074884774
20170301,-2.353068596583851
20170302,-1.8445152294233513
20170303,-0.3216370031445646
20170306,3.5425474324962725
20170307,0.43867520479200517
20170308,1.8340107293188792
20170309,1.8696607294952614
20170310,-0.6661705667202549
20170314,-0.342572567891367
20170315,-1.6154404378980893
20170316,-0.3365633738244559
20170317,0.2894162500000044
20170320,-0.3365633738244559
20170321,-0.17933374999999113
20170322,2.3170098537441386
20170323,-3.377414097859427
20170324,-1.4138170586862309
20170327,0.5869745875609628
20170328,0.7440896556441718
20170329,1.8319325549149967
20170330,-4.904520063779519
20170331,1.3287210513513386
20170403,-0.0226303
20170405,0.73840470761035
20170406,-1.2497753750306704
20170407,4.371157883939392
20170410,-2.241481985435814
20170411,-0.02278151
20170412,1.9927223659689879
20170413,0.9261323086075972
20170417,1.574209309456869
20170418,2.5741678174025995
20170419,0.14343188666666903
20170420,-0.19067016818030286
20170421,-2.190391926666662
20170424,2.2601246584339294
20170425,4.149897444507513
20170426,-0.8948053993728222
20170427,-0.1967383616753047
20170428,-0.02402679
20170502,-0.7136819624137907
20170503,0.8321375935616439
20170504,-0.7150237567012065
20170505,0.8334554631046313
20170508,-0.8892293731141869
20170509,-0.8818104031046313
20170510,-4.445946177482996
20170511,-1.6529925851140066
20170512,0.13592832025641252
20170515,3.8279993578330633
20170516,0.6434515427211996
20170517,0.4798735906722641
20170518,1.4959421802702797
20170519,0.8333048431046313
20170522,0.8407238131141869
20170523,2.0699127476963275
20170524,2.4712155820142576
20170525,-3.8634505762888374
20170526,-1.2567224561971881
20170529,-0.719980263913041
20170530,4.638884345233153
20170531,-0.9301251914492754
20170601,2.1299199037342955
20170602,-0.7584236141284377
20170605,-0.5709267474317018
20170606,1.062477861739133
20170607,0.70812207260073
20170608,2.927701430295205
20170609,-2.4958109797338346
20170612,-0.02432809
20170613,-3.734903229146568
20170614,3.0168168116100103
20170615,0.7136792900738111
20170616,0.533292727843861
20170619,-0.3981598657009399
20170620,0.5343311278771029
20170621,0.5374696628089835
20170622,0.16399582713747915
20170623,2.05114360811321
20170627,3.6365582298458548
20170628,2.175671910000003
20170629,-0.4333260450102308
20170630,1.8086658000203637
20170703,-1.0616724883402489
20170704,-1.256360944209434
20170705,-2.052725655922921
20170706,-0.02447866
20170707,-0.4220929741153138
20170710,0.5695807459405885
20170711,1.9675532125099602
20170712,-0.02447866
20170713,0.17907456252032808
20170714,-1.6535053722403201
20170717,-2.629387890841692
20170718,2.90551003
20170719,1.7866877211468926
20170720,-2.0729055878688527
20170721,0.5786843785542112
20170724,-0.22574546202020487
20170725,-0.02372526
20170726,0.9843392561290323
20170727,3.438445742260698
20170728,2.085828591350211
20170731,0.8381929155172384
20170801,-1.7630064847826024
20170802,1.471850445726487
20170803,2.79608056605207
20170804,1.5386239499999907
20170807,0.42963868922903137
20170808,4.304142173234621
20170809,2.357076330952381
20170810,4.3663678524390175
20170811,-1.5544882948979446
20170814,-18.86809715552764
20170816,-14.823030384038056
20170817,-2.7863069892265195
20170818,1.2306042367383438
20170821,3.242911608802185
20170822,8.981752467823636
20170823,1.6256084860824684
20170824,-0.02372526
20170828,1.2341363752201286
20170829,0.40090319010616315
20170830,1.0423728210234542
20170831,1.4848954296551633
20170901,-3.0871825904157517
20170904,-3.845381310955408
20170905,-0.2282242375051154
20170906,2.2211726991836764
20170907,0.6027303916701402
20170908,-0.8639105444537786
20170911,1.2264255900000032
20170912,-0.02357441
20170913,0.18739605413502414
20170914,-0.6579747314587828
20170915,-3.3850697978151287
20170918,0.7892828700813124
20170919,-10.06470886655739
20170920,1.0935931757541926
20170921,3.5544291656120497
20170922,5.83564974
20170925,1.6360257773444071
20170926,-2.5553708296202595
20170927,0.3877973737448618
20170928,-0.02372526
20170929,2.455613582975198
20171003,1.4593255874576332
20171004,-19.593617733118283
20171005,8.429663000071947
20171006,-2.3811382606876283
20171009,1.5119342272360927
20171010,0.3662891377582763
20171011,1.7376780361839501
20171012,0.97244152625498
20171013,-3.2428903053722222
20171016,4.264924615341123
20171017,-5.929888055621178
20171018,-1.1775714138461564
20171019,2.637871698174902
20171023,2.5153372400000085
20171024,-1.2261300696192414
20171025,-0.4197648639604017
20171026,1.1597066926627246
20171027,-0.22332605840319644
20171030,-1.2189443835059646
20171031,0.7636763148031469
20171101,0.37310013682538834
20171102,-2.214960319760945
20171103,-0.4135888077582902
20171106,0.3646242545631123
20171107,3.095183122066266
20171108,-3.8466628857545238
20171109,1.5266623368992331
20171110,-1.007977228503937
20171113,-5.871678476374269
20171114,3.107029804456714
20171115,5.10935458790875
20171116,-0.02372526
20171117,-0.22412606160320925
20171120,-0.02372526
20171121,0.17627474000000282
20171122,-5.03374530008016
20171123,-2.886320679847328
20171124,-0.3947827739146621
20171127,1.8247035754898335
20171128,-0.02372526
20171129,1.4828660770998197
20171130,0.7409423056405327
20171201,0.3614804047206084
20171204,2.1037835244680876
20171205,0.5690093254940795
20171206,-4.000019191153082
20171207,-3.0831494725621447
20171208,-3.919979946103899
20171211,-4.309590335714283
20171212,4.42817874452055
20171213,3.0227189320788455
20171214,-2.05714776903882
20171215,-0.20503547028984478
20171218,0.5186194292043348
20171219,-1.296603322727278
20171220,-0.5624756909335676
20171221,-2.7025982185714286
20171222,0.32379929695652665
20171226,-1.7692274880802792
20171227,1.1766593163464765
20171228,-0.02402679
20171229,-1.2393045677777703
