Date,Return
20150102,-2.072752346530617
20150105,-0.03193602
20150106,4.634730646666662
20150107,0.6673646793007092
20150108,-2.8491328584507065
20150109,-0.7171629568493127
20150112,1.32831276768707
20150113,0.6574237224137907
20150114,-4.8933425611111065
20150115,-0.03223145
20150116,3.2790268281456956
20150119,-1.4020944636986377
20150120,-0.03223145
20150121,-2.734934152702693
20150122,1.284297013684206
20150123,2.635174206666669
20150127,0.6534390468493128
20150128,1.3478178848275815
20150129,2.066261727902103
20150130,-0.03164037
20150202,-0.7459260842857117
20150203,-1.4500800863120644
20150204,2.7655624272028
20150205,2.845909621726621
20150206,2.1904340022222275
20150209,2.9985148103030195
20150210,0.7494617800000111
20150211,-1.6065913696063079
20150212,-2.357369615348829
20150213,-0.7893639775757684
20150216,-0.7836679192481176
20150218,-0.03178822
20150219,-1.5243255334328303
20150220,-0.03208376
20150223,0.7032103576470562
20150224,1.4493977214814762
20150225,2.223555337744366
20150226,2.275460857692313
20150227,-3.181837749212601
20150228,3.7845624431297713
20150302,-14.31794573571429
20150303,1.3566574388888961
20150304,-0.03223145
20150305,2.081035686338021
20150309,2.8460574717266214
20150310,-1.5131218514814762
20150311,2.158140651897803
20150312,5.191944577014934
20150313,-0.03193602
20150316,1.5428671296062937
20150317,4.768063979999997
20150318,-0.8722721544537785
20150319,-2.531936020000006
20150320,2.4070883702439083
20150323,3.3013973133333363
20150324,-1.7560739510344923
20150325,-1.726851274237282
20150326,4.968211779999996
20150327,-0.9089812024561372
20150330,-3.5100490895652205
20150331,0.8085479144537785
20150401,-4.26907635559322
20150406,-9.787885780975602
20150407,-0.7709737807407381
20150408,1.4403551952941125
20150409,1.4623042734328437
20150410,-3.8181118278787882
20150413,-5.139722091094899
20150415,-2.113566373333326
20150416,-12.955403108027225
20150417,1.7769958756626547
20150420,3.037251622576687
20150421,-1.296055824810122
20150422,0.5947669599999977
20150423,-0.03038142
20150424,4.372134303270447
20150427,-2.661960367368424
20150428,-5.799612189230772
20150429,-2.4546238442424153
20150430,-0.6222827763313694
20150504,-1.2070373882352898
20150505,-1.1933574976744146
20150506,3.417709062068954
20150507,5.921665902380951
20150508,5.03257608924051
20150511,-1.3640483833333286
20150512,-0.03071505
20150513,0.627179686842103
20150514,-0.03071505
20150515,-1.3552183612582853
20150518,-9.18104184738561
20150519,-3.6235294212574938
20150520,-0.03071505
20150521,-9.278936333294784
20150522,-0.5594819491005366
20150525,-1.083012998947365
20150526,-0.03038142
20150527,0.4904519133333223
20150528,-2.1244738776963277
20150529,1.5082284984615422
20150601,-5.759399706666674
20150602,0.9549886348768438
20150603,3.4523540246766307
20150604,-3.1224225151546463
20150605,2.47036099
20150608,0.996002015641022
20150609,-0.5477737250258957
20150610,-1.060566845051561
20150611,0.9907691532653206
20150612,0.48582490752576224
20150615,-0.5477737250258957
20150616,0.48582490752576224
20150617,-0.5477737250258957
20150618,0.48582490752576224
20150619,-0.02963901
20150622,-1.0659084400518095
20150623,0.4831815028205201
20150624,0.48582490752576224
20150625,-0.5477737250258957
20150626,-0.02963901
20150629,-0.02963901
20150630,-0.02963901
20150701,-0.5451029275257806
20150702,-0.5424595228205201
20150703,0.9912524532653206
20150706,-4.66833096773197
20150707,0.9560659648768439
20150708,-5.004280088109453
20150709,-18.512419202274874
20150710,3.97099312
20150713,-0.8623402133333303
20150714,6.169340227438017
20150715,5.697865366696039
20150716,1.3728622788784914
20150717,-4.2944097236018886
20150720,-1.392643243636367
20150721,1.316284599820631
20150722,1.7891749381818118
20150723,-3.7325617037036904
20150724,-9.850286571428585
20150727,2.410166390243908
20150728,-0.44552466666667256
20150729,-7.912675427385886
20150730,-11.951934923076928
20150731,5.813066398625439
20150803,-1.4887120145985482
20150804,-0.38857023021581966
20150805,0.6879878781361981
20150806,-0.3897199003249149
20150807,1.7698520810791367
20150810,1.8027927615018318
20150811,7.433977497164179
20150812,-4.060967134516129
20150813,2.6851028245736406
20150814,-0.8248882190039812
20150817,-2.3996169719762763
20150818,-0.8002762422007832
20150819,1.504491579808437
20150820,3.4732364552918233
20150821,0.7777425429032229
20150824,6.881860035691068
20150825,-1.7754339608297034
20150826,1.2588445780686726
20150827,-2.6374047221739194
20150828,-8.079556527627112
20150831,-0.02870907
20150901,2.7163889692156835
20150902,5.213226413870971
20150903,0.8223547597872309
20150904,4.692320972918461
20150907,8.07939903810811
20150908,-0.02870907
20150909,-1.4992973052941212
20150910,-3.8934433695169117
20150911,1.3666397672093058
20150914,-0.5004071832075538
20150915,2.7881923384507106
20150916,-0.9948926448792237
20150918,0.44961089952152095
20150921,0.45191123076923756
20150922,-1.4781333623188442
20150923,-0.505048476190483
20150924,-0.02852282
20150928,-4.767859312890995
20150929,0.8764545555656237
20150930,2.7112032073972507
20151001,-0.9662585561502313
20151005,-4.678454210697675
20151006,2.639375246666673
20151007,-0.940533429132433
20151008,-1.8372461711312154
20151009,0.8615974688888858
20151012,-2.269443886367713
20151013,-2.2202738761403507
20151014,1.2602622280686724
20151015,0.4074911886956583
20151016,-3.9574224243668223
20151019,-19.775190579663864
20151020,-4.939572121754381
20151021,4.320534666956513
20151023,4.168363315804205
20151026,2.89226714919707
20151027,1.100378668872183
20151028,2.253927941292781
20151029,-2.7511762885603086
20151030,2.624074271515149
20151102,3.4745046452918236
20151103,1.1822365393548417
20151104,1.6052121812244842
20151105,-4.591756232697087
20151106,-2.011567864126984
20151109,2.3071894701945443
20151110,2.761403741513955
20151111,-4.535637601311482
20151113,0.36456657274510357
20151116,-11.838613912047244
20151117,1.7329730902816902
20151118,4.631907917885295
20151119,-1.9072895381203008
20151120,-4.455634570442801
20151123,-0.02759029
20151124,-1.4410178518374508
20151126,1.3661379329965109
20151127,-2.5010885232155453
20151130,1.3517200548275814
20151201,-16.810807073216772
20151202,5.361631266886219
20151203,-9.204805479873412
20151204,-6.4044018842029065
20151207,-1.6624676741961695
20151208,-1.3680728637265416
20151209,3.411563149153432
20151210,-6.87709203849315
20151211,-5.92521286743589
20151214,-3.9018689796852337
20151215,-1.6594786017016385
20151216,-19.981905410366963
20151217,-9.970564873326966
20151218,-9.940969728260875
20151221,-4.458305996835438
20151222,4.972073749999995
20151223,4.9162523783891565
20151224,4.837845562080535
20151228,4.910345354938279
20151229,4.795821430890541
20151230,3.6757774537037013
20151231,-4.8862258451416976
