Date,Return
20130102,0.0
20130103,-1.5181483175836512
20130104,-5.525664964505495
20130107,2.052173863333338
20130108,3.1603298917021228
20130109,-0.03115947
20130110,-0.03101138
20130111,2.533091184102562
20130114,0.3449284696240655
20130115,-0.03101138
20130116,4.119932016226421
20130117,1.1503873122047132
20130118,-0.8275277990039812
20130121,1.9455695349802373
20130122,1.9854139822580645
20130123,0.7923302174897091
20130124,7.438164618049795
20130125,-0.4791455432735331
20130128,-3.6021436214285747
20130129,6.865836674137922
20130130,-2.345529864814815
20130131,-7.270385804524876
20130201,-2.5622123696202594
20130204,3.261614269958851
20130205,5.075816178723401
20130206,0.866294186547082
20130207,-0.03071505
20130208,4.946660515610866
20130211,-1.935476954761898
20130212,1.3711541088784915
20130213,2.3389531964454977
20130214,-0.03071505
20130215,2.8819063092233077
20130218,-1.0307150499999964
20130219,2.9395819797029596
20130220,-2.5817354581632648
20130221,-0.5283756878109346
20130222,-3.496209784653462
20130225,6.189232443779891
20130226,10.17321838265306
20130227,-0.599045068181806
20130228,-1.1611029728248548
20130301,6.114091926648033
20130304,2.349792910952394
20130305,-4.299452152926848
20130306,-0.6159547916374144
20130307,1.1316312276744147
20130308,-0.03115947
20130311,3.4982522947058907
20130312,-3.0799399578048785
20130313,0.5605565063313483
20130314,1.1593167204761863
20130315,1.1736598071084507
20130318,0.5785966275609628
20130319,2.422828260061352
20130320,4.371356253270447
20130321,-4.636126407894745
20130322,6.258444926100629
20130325,-0.03086325
20130326,-0.03086325
20130328,-0.03149246
20130401,-3.387197157986577
20130402,-7.823700252207799
20130403,0.5709171785542253
20130404,6.030373020606061
20130405,0.6149282503225784
20130408,-1.978284988051941
20130409,-0.03023304
20130410,-0.03023304
20130411,1.243652310318467
20130412,1.2602379606451568
20130415,-1.3372741624836555
20130416,1.2602379606451568
20130417,-7.219627103660116
20130418,1.7994806926829099
20130422,5.560274511801255
20130423,-1.3455770736842174
20130425,1.2692481087013057
20130426,-0.6873479268421147
20130429,0.6241415812418394
20130430,1.286336283684206
20130502,-0.6958223766666642
20130503,-2.015910676887422
20130506,0.620194939350647
20130507,0.6244390612418393
20130508,-0.6870504468421146
20130509,0.6247367712418394
20130510,0.6290367368421029
20130511,-2.0156129668874216
20130513,0.620492649350647
20130514,-0.028857999999999998
20130515,1.278331542483667
20130516,1.9585303268874104
20130517,-1.3795759913513466
20130520,-2.6948913066666687
20130521,3.867879256103894
20130522,2.674478062702705
20130523,0.666368974444442
20130524,-2.1259775679020905
20130527,1.3417875436986253
20130528,2.055257863333338
20130529,0.6811443881560258
20130530,1.4003467885714236
20130531,0.6964130411594305
20130603,1.4316293745985351
20130604,-0.02822464
20130605,2.9347383229629656
20130606,-3.845167653129771
20130607,-0.7636678776470562
20130610,-0.7583007672992805
20130611,5.044090008115949
20130612,0.7349850186259514
20130613,4.586526615384614
20130614,-0.028857999999999998
20130617,-1.6417612258064458
20130618,-1.616159587301596
20130619,-0.028857999999999998
20130620,0.7525409300000111
20130621,3.908298804015748
20130624,11.446700766065563
20130625,-3.7324127737036905
20130626,5.328433787142854
20130627,-0.028857999999999998
20130628,1.857934452830182
20130701,-10.605781076923073
20130702,-0.028857999999999998
20130703,2.5798376521739192
20130704,5.328135977142854
20130705,-2.8591955592452893
20130708,-0.02900688
20130709,2.723286697981658
20130710,-0.972403106415091
20130711,-0.9634374392523498
20130712,0.897067925925939
20130715,-0.028857999999999998
20130716,-0.028857999999999998
20130717,-0.028857999999999998
20130718,-2.8325963177570164
20130719,3.6075056363636397
20130722,4.688123132075472
20130723,2.9414390297029596
20130724,8.134407306122455
20130725,-7.8195304977777695
20130726,2.0201029501030856
20130729,10.484563069473683
20130730,-0.04175272
20130731,4.66412963294118
20130801,-16.092071676049393
20130802,-11.744816619574463
20130805,9.481120563809524
20130806,7.325732092631572
20130807,-6.860870778181814
20130808,4.213854938936174
20130812,-4.485908654444448
20130813,-2.1691237844680775
20130814,2.041869123333326
20130816,1.0205298572340387
20130819,5.333044156021505
20130820,-3.452390839090897
20130821,-4.438904325604399
20130822,3.1159617968421127
20130823,-4.389759026956526
20130826,2.041400393333326
20130827,6.341045783404251
20130828,-6.860114758181814
20130829,-1.1092429872340388
20130830,5.217744694736842
20130902,-0.045413199999999994
20130903,-3.378746533333341
20130904,3.1803932516129105
20130905,-3.376022293333341
20130906,-3.2684954116128915
20130910,2.040644373333326
20130911,-4.298008108936173
20130912,-19.428280212040804
20130913,-15.425140494615391
20130916,9.589104519629634
20130917,7.336524070327858
20130918,-6.235215375486719
20130919,-0.039764999999999995
20130920,6.626901666666672
20130923,6.210234999999994
20130924,-0.039764999999999995
20130925,-0.992145952380949
20130926,-2.8671907292452894
20130927,2.715291527981658
20130930,-0.03700205
20131001,-3.8105869556603804
20131003,-10.036564049999997
20131004,-0.03656405
20131007,-1.6894566119834797
20131008,1.58945221016261
20131009,-2.5159028929752125
20131010,0.7724888629032228
20131011,1.59205351016261
20131014,1.6189298119834652
20131015,-0.8742988844537786
20131017,2.4658902500000064
20131018,3.384693668803407
20131021,-1.8040212544247725
20131022,-4.381935836956521
20131023,-0.03410975
20131024,1.6330348666666608
20131025,-0.8810894271186409
20131028,-0.0336318
20131029,-0.8739679344537785
20131030,-4.200298466666666
20131031,3.96699407
20131101,-0.03300593
20131103,-0.03300593
20131105,-5.866339263333327
20131106,-6.332218528425202
20131107,8.856030358888884
20131108,-4.910907310487802
20131111,3.843110462248062
20131112,-3.2586649816129056
20131113,5.435891470000008
20131114,-0.03440359
20131118,-2.5137424329752127
20131119,-2.4537584287096688
20131120,-1.609206739606308
20131121,-0.034256699999999994
20131122,2.291324695348843
20131125,0.7593940936507908
20131126,-1.6342566999999946
20131127,3.1153495992125877
20131128,-3.2862892203251914
20131129,-1.609059849606308
20131202,3.841712292248062
20131203,0.7721949129032228
20131204,-2.4732810902438933
20131205,1.5541114773015816
20131206,-0.03319011
20131209,-0.03319011
20131210,1.5797131158064601
20131211,-0.03319011
20131212,2.425384593442614
20131213,0.8067043344537785
20131216,-1.7285470542372818
20131217,0.7997015333333304
20131218,2.4873766033613505
20131219,-0.8952590755172385
20131220,3.3856133088034066
20131223,-0.9181458622123863
20131224,-6.173540987192975
20131226,-5.818461366942158
20131227,-5.502087399999994
20131230,1.448144081481476
20131231,-1.5370967984962352
20140102,11.767757606024857
20140103,0.6707407221126735
20140106,-12.09022221865249
20140107,3.131072332025316
20140108,-4.608648028692805
20140109,-0.6584846300000089
20140110,-19.909261027515523
20140113,-9.87804421549222
20140114,-9.939145007358498
20140115,3.829176314206018
20140116,2.1986582271428574
20140303,23.70926494744292
20140304,1.1625775004191574
20140305,-0.03502729
20140306,-4.277598142424238
20140307,-0.0351739
20140310,6.941570286046507
20140311,4.339826099999995
20140312,5.847179041176473
20140313,0.658977474444442
20140314,2.7617358272028
20140318,1.403381950863317
20140319,-2.2252479918978154
20140320,0.6791118142857118
20140321,-0.0351739
20140324,-3.6322962021582734
20140325,2.7426038777777797
20140326,-0.0351739
20140327,-0.03396275
20140328,2.108894392857148
20140331,0.6959642572992675
20140401,-4.44572745588235
20140402,-2.850864158450707
20140403,-0.034256699999999994
20140404,-0.7191882068493127
20140407,-0.034256699999999994
20140409,-5.476433570748305
20140410,5.1271805725806505
20140411,-7.5171029472789215
20140415,-3.198666712025316
20140416,3.0333749125766873
20140417,-2.565608319620244
20140421,-0.03396275
20140422,0.5833212006172708
20140423,-2.518434799689432
20140425,4.208461492424238
20140428,1.2318600348101334
20140429,-1.316014032051289
20140430,1.2318600348101334
20140502,1.8891141730769163
20140505,1.9268215637254948
20140506,4.632703916666662
20140507,1.3646386486014062
20140508,-1.4522186463120643
20140509,0.6655217693007092
20140512,0.6704464221126736
20140513,-4.998317937092207
20140514,-2.0608059570270196
20140515,-3.3452210281456956
20140516,7.658344942307689
20140519,-16.006184972222215
20140520,-10.213603468562871
20140521,-2.7513540543478263
20140522,-8.498798575608474
20140523,6.30827330463415
20140526,7.77930989
20140527,6.181499155536712
20140528,-19.912708182289137
20140529,3.986910392512549
20140530,3.10817114654451
20140602,-1.6548117316216255
20140603,-3.7565943653191454
20140604,-0.03319011
20140605,-1.058352095641022
20140630,13.672725226345174
20140701,0.5553767641176555
20140702,4.1091533043195225
20140703,1.2018568312345634
20140704,-0.03271107
20140707,0.5922889299999978
20140708,4.369804653270447
20140709,3.256762614210526
20140710,-2.753946965374152
20140711,1.2916447812582734
20140714,3.3228461679865773
20140715,-2.81063630777778
20140716,-1.3842098813513466
20140717,-1.3663392633333287
20140718,-1.3487954036842176
20140721,1.2656953687013055
20140722,-2.6645848773684238
20140723,-0.03300593
20140724,-1.9560828530769279
20140725,3.111648158050315
20140728,3.863097966103894
20140730,1.9940210970270316
20140731,-0.03319011
20140801,-1.4125004548275815
20140804,-5.475366980748304
20140805,0.6119711803225784
20140806,1.2655111887013055
20140807,0.6247046268421029
20140808,3.2780681681456953
20140811,1.3366729036986253
20140812,-4.894301221111106
20140813,7.251578101920528
20140814,-1.4617615385714235
20140818,4.192162002676055
20140819,-2.974366580588238
20140820,-2.176047252857148
20140821,-0.03319011
20140822,-4.228994305804193
20140825,6.007078346375842
20140826,1.3953813185714234
20140827,-0.7578277911594178
20140828,0.6864185304316521
20140901,-0.03300593
20140902,-5.105469698115937
20140903,-0.7226611024137907
20140904,2.021788590547938
20140905,-2.13090802790209
20140908,-4.827526477945213
20140909,-8.529737956143796
20140910,-2.442644484216858
20140911,-20.033005929999995
20140912,-2.9741824005882425
20140915,3.30032740333333
20140916,9.819210818768472
20140917,3.792130682021854
20140918,-3.442096839090897
20140919,3.8131479161538424
20140922,1.6812797842857181
20140923,3.4553661630232435
20140924,3.5814519013253094
20140925,3.09228893
20140926,-0.03271107
20140929,-5.194001392580651
20140930,4.8752643901227035
20141001,-0.03271107
20141007,1.2576115106451569
20141008,-0.6863058412418277
20141009,-1.331264858701294
20141010,0.6084620810256387
20141013,-1.9680474309677465
20141014,-0.03256356
20141016,1.8661706172151944
20141017,3.193242891612903
20141020,-0.03256356
20141021,0.6341031066666643
20141022,-0.03256356
20141023,-5.4016910767785165
20141027,4.4261827361146455
20141028,-0.6990826566666642
20141029,0.6298356656291367
20141030,-0.03241599
20141031,-1.3657493233333287
20141103,-3.321889674210526
20141105,-0.03241599
20141107,2.515834680636934
20141110,3.236037836209151
20141111,-6.113017101081071
20141112,0.6050066551592335
20141113,3.173192185128206
20141114,-6.654452576291402
20141117,0.5891819924223691
20141118,-0.6569360200000088
20141119,-16.181004342981353
20141120,7.989602154331551
20141121,-0.6131835688372177
20141124,6.326593282890181
20141125,3.6719154837037014
20141126,0.6092374210256387
20141127,-0.03178822
20141128,1.258534360645157
20141201,6.504159492418301
20141202,-2.1296903179020905
20141203,-10.990692329589038
20141204,3.0547793830864203
20141205,0.6053023051592334
20141208,0.6093852710256388
20141209,2.5490047912903253
20141210,0.6306112856291367
20141211,-0.03164037
20141212,-0.6983070366666643
20141215,1.9551145968874102
20141216,5.37376503540541
20141217,0.6826453442857118
20141218,-4.348630522589925
20141219,0.6575714124137907
20141222,1.3568051288888963
20141223,-0.7363091121126861
20141224,-6.3257900537062834
20141226,1.283705713684206
20141229,1.3012495733333287
20141230,0.6435919156756852
20141231,0.648188348843535
20150102,-2.072752346530617
20150105,-0.03193602
20150106,4.634730646666662
20150107,0.6673646793007092
20150108,-2.8491328584507065
20150109,-0.7171629568493127
20150112,1.32831276768707
20150113,0.6574237224137907
20150114,-4.8933425611111065
20150115,-0.03223145
20150116,3.2790268281456956
20150119,-1.4020944636986377
20150120,-0.03223145
20150121,-2.734934152702693
20150122,1.284297013684206
20150123,2.635174206666669
20150127,0.6534390468493128
20150128,1.3478178848275815
20150129,2.066261727902103
20150130,-0.03164037
20150202,-0.7459260842857117
20150203,-1.4500800863120644
20150204,2.7655624272028
20150205,2.845909621726621
20150206,2.1904340022222275
20150209,2.9985148103030195
20150210,0.7494617800000111
20150211,-1.6065913696063079
20150212,-2.357369615348829
20150213,-0.7893639775757684
20150216,-0.7836679192481176
20150218,-0.03178822
20150219,-1.5243255334328303
20150220,-0.03208376
20150223,0.7032103576470562
20150224,1.4493977214814762
20150225,2.223555337744366
20150226,2.275460857692313
20150227,-3.181837749212601
20150228,3.7845624431297713
20150302,-14.31794573571429
20150303,1.3566574388888961
20150304,-0.03223145
20150305,2.081035686338021
20150309,2.8460574717266214
20150310,-1.5131218514814762
20150311,2.158140651897803
20150312,5.191944577014934
20150313,-0.03193602
20150316,1.5428671296062937
20150317,4.768063979999997
20150318,-0.8722721544537785
20150319,-2.531936020000006
20150320,2.4070883702439083
20150323,3.3013973133333363
20150324,-1.7560739510344923
20150325,-1.726851274237282
20150326,4.968211779999996
20150327,-0.9089812024561372
20150330,-3.5100490895652205
20150331,0.8085479144537785
20150401,-4.26907635559322
20150406,-9.787885780975602
20150407,-0.7709737807407381
20150408,1.4403551952941125
20150409,1.4623042734328437
20150410,-3.8181118278787882
20150413,-5.139722091094899
20150415,-2.113566373333326
20150416,-12.955403108027225
20150417,1.7769958756626547
20150420,3.037251622576687
20150421,-1.296055824810122
20150422,0.5947669599999977
20150423,-0.03038142
20150424,4.372134303270447
20150427,-2.661960367368424
20150428,-5.799612189230772
20150429,-2.4546238442424153
20150430,-0.6222827763313694
20150504,-1.2070373882352898
20150505,-1.1933574976744146
20150506,3.417709062068954
20150507,5.921665902380951
20150508,5.03257608924051
20150511,-1.3640483833333286
20150512,-0.03071505
20150513,0.627179686842103
20150514,-0.03071505
20150515,-1.3552183612582853
20150518,-9.18104184738561
20150519,-3.6235294212574938
20150520,-0.03071505
20150521,-9.278936333294784
20150522,-0.5594819491005366
20150525,-1.083012998947365
20150526,-0.03038142
20150527,0.4904519133333223
20150528,-2.1244738776963277
20150529,1.5082284984615422
20150601,-5.759399706666674
20150602,0.9549886348768438
20150603,3.4523540246766307
20150604,-3.1224225151546463
20150605,2.47036099
20150608,0.996002015641022
20150609,-0.5477737250258957
20150610,-1.060566845051561
20150611,0.9907691532653206
20150612,0.48582490752576224
20150615,-0.5477737250258957
20150616,0.48582490752576224
20150617,-0.5477737250258957
20150618,0.48582490752576224
20150619,-0.02963901
20150622,-1.0659084400518095
20150623,0.4831815028205201
20150624,0.48582490752576224
20150625,-0.5477737250258957
20150626,-0.02963901
20150629,-0.02963901
20150630,-0.02963901
20150701,-0.5451029275257806
20150702,-0.5424595228205201
20150703,0.9912524532653206
20150706,-4.66833096773197
20150707,0.9560659648768439
20150708,-5.004280088109453
20150709,-18.512419202274874
20150710,3.97099312
20150713,-0.8623402133333303
20150714,6.169340227438017
20150715,5.697865366696039
20150716,1.3728622788784914
20150717,-4.2944097236018886
20150720,-1.392643243636367
20150721,1.316284599820631
20150722,1.7891749381818118
20150723,-3.7325617037036904
20150724,-9.850286571428585
20150727,2.410166390243908
20150728,-0.44552466666667256
20150729,-7.912675427385886
20150730,-11.951934923076928
20150731,5.813066398625439
20150803,-1.4887120145985482
20150804,-0.38857023021581966
20150805,0.6879878781361981
20150806,-0.3897199003249149
20150807,1.7698520810791367
20150810,1.8027927615018318
20150811,7.433977497164179
20150812,-4.060967134516129
20150813,2.6851028245736406
20150814,-0.8248882190039812
20150817,-2.3996169719762763
20150818,-0.8002762422007832
20150819,1.504491579808437
20150820,3.4732364552918233
20150821,0.7777425429032229
20150824,6.881860035691068
20150825,-1.7754339608297034
20150826,1.2588445780686726
20150827,-2.6374047221739194
20150828,-8.079556527627112
20150831,-0.02870907
20150901,2.7163889692156835
20150902,5.213226413870971
20150903,0.8223547597872309
20150904,4.692320972918461
20150907,8.07939903810811
20150908,-0.02870907
20150909,-1.4992973052941212
20150910,-3.8934433695169117
20150911,1.3666397672093058
20150914,-0.5004071832075538
20150915,2.7881923384507106
20150916,-0.9948926448792237
20150918,0.44961089952152095
20150921,0.45191123076923756
20150922,-1.4781333623188442
20150923,-0.505048476190483
20150924,-0.02852282
20150928,-4.767859312890995
20150929,0.8764545555656237
20150930,2.7112032073972507
20151001,-0.9662585561502313
20151005,-4.678454210697675
20151006,2.639375246666673
20151007,-0.940533429132433
20151008,-1.8372461711312154
20151009,0.8615974688888858
20151012,-2.269443886367713
20151013,-2.2202738761403507
20151014,1.2602622280686724
20151015,0.4074911886956583
20151016,-3.9574224243668223
20151019,-19.775190579663864
20151020,-4.939572121754381
20151021,4.320534666956513
20151023,4.168363315804205
20151026,2.89226714919707
20151027,1.100378668872183
20151028,2.253927941292781
20151029,-2.7511762885603086
20151030,2.624074271515149
20151102,3.4745046452918236
20151103,1.1822365393548417
20151104,1.6052121812244842
20151105,-4.591756232697087
20151106,-2.011567864126984
20151109,2.3071894701945443
20151110,2.761403741513955
20151111,-4.535637601311482
20151113,0.36456657274510357
20151116,-11.838613912047244
20151117,1.7329730902816902
20151118,4.631907917885295
20151119,-1.9072895381203008
20151120,-4.455634570442801
20151123,-0.02759029
20151124,-1.4410178518374508
20151126,1.3661379329965109
20151127,-2.5010885232155453
20151130,1.3517200548275814
20151201,-16.810807073216772
20151202,5.361631266886219
20151203,-9.204805479873412
20151204,-6.4044018842029065
20151207,-1.6624676741961695
20151208,-1.3680728637265416
20151209,3.411563149153432
20151210,-6.87709203849315
20151211,-5.92521286743589
20151214,-3.9018689796852337
20151215,-1.6594786017016385
20151216,-19.981905410366963
20151217,-9.970564873326966
20151218,-9.940969728260875
20151221,-4.458305996835438
20151222,4.972073749999995
20151223,4.9162523783891565
20151224,4.837845562080535
20151228,4.910345354938279
20151229,4.795821430890541
20151230,3.6757774537037013
20151231,-4.8862258451416976
20160104,0.16039766713747916
20160105,0.9154699764150943
20160106,-0.40887863095238636
20160107,4.905660087760913
20160108,0.3712753468063929
20160111,3.9800897820641277
20160112,1.8509881550104357
20160113,1.248669494680854
20160114,3.85138409482758
20160115,2.886871956278036
20160118,4.821958276558878
20160119,2.8846951092233075
20160120,4.97207375
20160121,4.971775359999996
20160122,-5.014374224487527
20160125,-4.777565009393151
20160127,-4.814118846549115
20160128,-4.8076923076923075
20160129,-4.816513761467893
20160201,-4.814004376367605
20160202,-3.340292275574116
20160203,3.8383838383838356
20160204,-1.4989619952941087
20160205,3.28425563958591
20160208,1.042290051563169
20160209,-0.02837376
20160210,4.949981218354988
20160211,4.755225328838272
20160212,4.756315235215311
20160215,-4.802243106733683
20160216,-4.824536829544365
20160217,-0.02837376
20160218,-1.1725385197254004
20160219,1.1028479594570135
20160222,-0.02837376
20160223,-0.9437055677803171
20160224,-1.3889179776870781
20160225,-1.789709172259501
20160226,0.6593406593406531
20160229,0.22123893805310046
20160301,-3.9911308203991065
20160302,-4.904051172707899
20160303,2.817452985284564
20160304,-3.793765846569047
20160308,0.1735374332258093
20160309,-9.5230249649495
20160310,5.506979880553505
20160311,-4.324950469999992
20160314,1.0955200356179802
20160315,1.2976821057575678
20160316,-0.02807547
20160317,3.0429418044721714
20160318,-2.206293291782181
20160321,-2.5474553149612347
20160322,1.862283698241966
20160323,1.5133503488824607
20160328,1.3419367636986357
20160329,1.1625499404761934
20160330,-3.240777655622493
20160331,-0.8062855867315147
20160401,1.7093762674517345
20160404,0.7577791468958714
20160405,-2.8003526977227695
20160406,-1.5695012888824746
20160407,5.096833828444028
20160408,-0.42650583000000564
20160411,2.3639324170119576
20160412,1.1979839659183702
20160413,1.0067018312396696
20160418,3.1051679883507304
20160420,-2.828080157931044
20160421,1.2315056152201287
20160422,-0.2386702450530816
20160425,0.185508386779664
20160426,2.309100455583867
20160427,-1.9828777591304318
20160428,3.5983774554797345
20160429,0.41612185610620095
20160502,-0.24857824222222538
20160503,-1.3567329601330407
20160504,-0.02635602
20160505,-0.24532421074397004
20160506,1.7202190608296883
20160509,-3.137616941111108
20160510,-3.0437472093103417
20160511,1.856339358284516
20160512,-1.9454823758422146
20160513,3.320774504728022
20160516,-0.8923066958008626
20160517,-0.6702826540343285
20160518,1.4660314834328267
20160519,7.765701962207795
20160520,-2.8434072384506943
20160523,-1.8529898482648501
20160524,-11.237268161838564
20160525,0.3767199764516186
20160526,5.843939514129552
20160527,0.4036016968817265
20160530,-1.5383848796760322
20160531,2.101153744468085
20160601,-6.765636264782611
20160602,-0.84116978112016
20160603,1.9936961902020203
20160606,-3.1192893351546394
20160607,1.5734941699999945
20160608,0.5832502675609843
20160609,-1.8668468175460091
20160610,1.379266469959831
20160613,2.4176358333604946
20160614,-0.8614290888935253
20160615,-6.237536144223602
20160616,1.533248041033133
20160617,-0.02620615
20160620,0.3698334539604017
20160621,0.5702153211729565
20160622,0.97379385
20160623,0.17581405202020486
20160624,0.37865214959513316
20160627,0.3802979150406562
20160628,1.8105285438775482
20160629,-0.23410635790021087
20160630,-8.532280296390029
20160701,-0.7908745856405462
20160704,-0.21580955068310115
20160705,1.867883163939394
20160707,0.7466321722007696
20160708,0.5580889875486326
20160711,-1.3954316136986218
20160712,0.3605317861003779
20160713,-0.025568599999999997
20160714,0.36217845922481173
20160715,0.5582391475486326
20160718,1.3444445736986357
20160719,2.950772036190476
20160720,1.2015754250306778
20160721,0.5956995724223544
20160722,-1.0670851066666664
20160725,1.0055093950515464
20160726,-0.2337517733333363
20160727,0.18248176790021087
20160728,0.599581559999994
20160729,-0.02541844
20160801,-0.6543492576100569
20160802,0.599581559999994
20160803,1.4420868010901526
20160804,-1.302014184680854
20160805,1.0250017280672268
20160808,-0.45004689010614807
20160809,-0.44825142097252185
20160810,1.237739454736845
20160811,1.6803384896375209
20160812,-1.977696097266808
20160816,-0.02541844
20160817,1.676709219574462
20160818,2.1390837245021643
20160819,-0.9103741922123862
20160822,-3.534190369824565
20160823,1.4576324074576332
20160824,-2.606063601290329
20160825,-5.0568649808805
20160826,-2.021426424031936
20160829,3.6927811686105643
20160830,0.1778335925203281
20160831,2.011241437800407
20160901,1.8456834311018682
20160902,-1.932198101016946
20160906,-2.104420519002079
20160907,-10.819715792342151
20160908,-2.5989478517647036
20160909,6.784617402293901
20160912,2.2822738676923127
20160914,-5.930930251023622
20160915,1.4617206275836379
20160916,-2.6667776539622614
20160919,-1.128209396470591
20160920,4.3383681436363615
20160921,1.1154161906463904
20160922,-2.9098836046153846
20160923,0.5354794435513965
20160926,-0.5891779944360848
20160927,2.965385985607479
20160928,-0.9886593568015415
20160929,4.17320506244274
20160930,-1.6188937180079626
20161003,-0.8095819454901932
20161004,-2.7490036285603088
20161005,0.9217014769696971
20161006,4.373038754933073
20161007,-4.8246667899999975
20161010,-4.032300377786262
20161013,-1.1255842211926632
20161014,-4.561871871669692
20161017,2.232277654444452
20161018,0.8634326771403198
20161019,-0.02466679
20161020,0.5128171686021455
20161021,0.5157233005405355
20161024,-0.5682955008695599
20161025,-4.529321744504505
20161026,2.9062172427586255
20161027,-0.379906576856133
20161028,0.6832978117699089
20161030,-0.3811730288591724
20161101,-6.418982953410305
20161102,-0.5255015145409087
20161103,-13.646079698471764
20161104,4.945942993918137
20161107,-0.9478941630769143
20161108,-0.1772562643902569
20161109,4.084771801095894
20161110,0.6104419749206327
20161111,5.087342426261985
20161115,3.8475752120538673
20161116,1.2014407795796898
20161117,3.345710576241132
20161118,-0.02308375
20161121,4.0136134977064275
20161122,-6.141630595124289
20161123,-4.527588254504504
20161124,0.14963228310345073
20161125,-0.19549308167530471
20161128,0.14963228310345073
20161129,-3.3043013718307406
20161130,-5.875624319364548
20161201,5.664120041469186
20161202,2.321974876465671
20161205,1.8637087028301789
20161206,-4.3937131206293705
20161207,1.986966501256286
20161208,-20.023083750000005
20161209,-0.45043417735042335
20161212,3.6648595124113394
20161213,3.6588013751840935
20161214,-6.292196899847085
20161215,-4.4844584446762505
20161216,2.4553120529752026
20161219,0.399702023559318
20161220,3.3802285291489444
20161221,0.8570304787224587
20161222,1.753600307777782
20161223,0.7299703429713423
20161226,0.27977389778115935
20161227,-0.4814945431707491
20161228,-1.0863929479969476
20161229,-1.5258295915015017
20161230,-2.391191995325457
20170103,0.4006010884702509
20170104,-6.2832185594167935
20170105,-3.6384846213253055
20170106,2.3015546053488514
20170109,-0.28857705455026833
20170110,-0.1559529113720429
20170111,-5.294119016613966
20170112,3.855521722265342
20170113,0.3662969099999963
20170116,-0.6779228612418301
20170117,1.6639835983116846
20170118,-1.6095328456142706
20170119,0.3657889451105479
20170120,2.194993058825051
20170123,-0.4248621353938547
20170124,1.0395016972340387
20170125,1.1853493293548463
20170127,1.8805844347619127
20170130,10.378041670083219
20170131,-2.191360132538709
20170201,0.1273376815151429
20170202,-1.6932225411380792
20170203,-0.7702954467164178
20170206,-2.8388416048148235
20170207,0.26415764804034986
20170208,0.6985165626011561
20170209,-4.827218709781655
20170210,-0.162614148888881
20170213,1.2245410368099745
20170214,0.8189713692134951
20170215,4.083923465212453
20170216,0.12368369744462115
20170217,0.27183119816566365
20170220,-0.46913064756676137
20170221,0.7145256472230428
20170222,3.1009732100000122
20170223,1.973051753379412
20170227,-0.4940954857366727
20170228,-0.49189477074884774
20170301,-2.353068596583851
20170302,-1.8445152294233513
20170303,-0.3216370031445646
20170306,3.5425474324962725
20170307,0.43867520479200517
20170308,1.8340107293188792
20170309,1.8696607294952614
20170310,-0.6661705667202549
20170314,-0.342572567891367
20170315,-1.6154404378980893
20170316,-0.3365633738244559
20170317,0.2894162500000044
20170320,-0.3365633738244559
20170321,-0.17933374999999113
20170322,2.3170098537441386
20170323,-3.377414097859427
20170324,-1.4138170586862309
20170327,0.5869745875609628
20170328,0.7440896556441718
20170329,1.8319325549149967
20170330,-4.904520063779519
20170331,1.3287210513513386
20170403,-0.0226303
20170405,0.73840470761035
20170406,-1.2497753750306704
20170407,4.371157883939392
20170410,-2.241481985435814
20170411,-0.02278151
20170412,1.9927223659689879
20170413,0.9261323086075972
20170417,1.574209309456869
20170418,2.5741678174025995
20170419,0.14343188666666903
20170420,-0.19067016818030286
20170421,-2.190391926666662
20170424,2.2601246584339294
20170425,4.149897444507513
20170426,-0.8948053993728222
20170427,-0.1967383616753047
20170428,-0.02402679
20170502,-0.7136819624137907
20170503,0.8321375935616439
20170504,-0.7150237567012065
20170505,0.8334554631046313
20170508,-0.8892293731141869
20170509,-0.8818104031046313
20170510,-4.445946177482996
20170511,-1.6529925851140066
20170512,0.13592832025641252
20170515,3.8279993578330633
20170516,0.6434515427211996
20170517,0.4798735906722641
20170518,1.4959421802702797
20170519,0.8333048431046313
20170522,0.8407238131141869
20170523,2.0699127476963275
20170524,2.4712155820142576
20170525,-3.8634505762888374
20170526,-1.2567224561971881
20170529,-0.719980263913041
20170530,4.638884345233153
20170531,-0.9301251914492754
20170601,2.1299199037342955
20170602,-0.7584236141284377
20170605,-0.5709267474317018
20170606,1.062477861739133
20170607,0.70812207260073
20170608,2.927701430295205
20170609,-2.4958109797338346
20170612,-0.02432809
20170613,-3.734903229146568
20170614,3.0168168116100103
20170615,0.7136792900738111
20170616,0.533292727843861
20170619,-0.3981598657009399
20170620,0.5343311278771029
20170621,0.5374696628089835
20170622,0.16399582713747915
20170623,2.05114360811321
20170627,3.6365582298458548
20170628,2.175671910000003
20170629,-0.4333260450102308
20170630,1.8086658000203637
20170703,-1.0616724883402489
20170704,-1.256360944209434
20170705,-2.052725655922921
20170706,-0.02447866
20170707,-0.4220929741153138
20170710,0.5695807459405885
20170711,1.9675532125099602
20170712,-0.02447866
20170713,0.17907456252032808
20170714,-1.6535053722403201
20170717,-2.629387890841692
20170718,2.90551003
20170719,1.7866877211468926
20170720,-2.0729055878688527
20170721,0.5786843785542112
20170724,-0.22574546202020487
20170725,-0.02372526
20170726,0.9843392561290323
20170727,3.438445742260698
20170728,2.085828591350211
20170731,0.8381929155172384
20170801,-1.7630064847826024
20170802,1.471850445726487
20170803,2.79608056605207
20170804,1.5386239499999907
20170807,0.42963868922903137
20170808,4.304142173234621
20170809,2.357076330952381
20170810,4.3663678524390175
20170811,-1.5544882948979446
20170814,-18.86809715552764
20170816,-14.823030384038056
20170817,-2.7863069892265195
20170818,1.2306042367383438
20170821,3.242911608802185
20170822,8.981752467823636
20170823,1.6256084860824684
20170824,-0.02372526
20170828,1.2341363752201286
20170829,0.40090319010616315
20170830,1.0423728210234542
20170831,1.4848954296551633
20170901,-3.0871825904157517
20170904,-3.845381310955408
20170905,-0.2282242375051154
20170906,2.2211726991836764
20170907,0.6027303916701402
20170908,-0.8639105444537786
20170911,1.2264255900000032
20170912,-0.02357441
20170913,0.18739605413502414
20170914,-0.6579747314587828
20170915,-3.3850697978151287
20170918,0.7892828700813124
20170919,-10.06470886655739
20170920,1.0935931757541926
20170921,3.5544291656120497
20170922,5.83564974
20170925,1.6360257773444071
20170926,-2.5553708296202595
20170927,0.3877973737448618
20170928,-0.02372526
20170929,2.455613582975198
20171003,1.4593255874576332
20171004,-19.593617733118283
20171005,8.429663000071947
20171006,-2.3811382606876283
20171009,1.5119342272360927
20171010,0.3662891377582763
20171011,1.7376780361839501
20171012,0.97244152625498
20171013,-3.2428903053722222
20171016,4.264924615341123
20171017,-5.929888055621178
20171018,-1.1775714138461564
20171019,2.637871698174902
20171023,2.5153372400000085
20171024,-1.2261300696192414
20171025,-0.4197648639604017
20171026,1.1597066926627246
20171027,-0.22332605840319644
20171030,-1.2189443835059646
20171031,0.7636763148031469
20171101,0.37310013682538834
20171102,-2.214960319760945
20171103,-0.4135888077582902
20171106,0.3646242545631123
20171107,3.095183122066266
20171108,-3.8466628857545238
20171109,1.5266623368992331
20171110,-1.007977228503937
20171113,-5.871678476374269
20171114,3.107029804456714
20171115,5.10935458790875
20171116,-0.02372526
20171117,-0.22412606160320925
20171120,-0.02372526
20171121,0.17627474000000282
20171122,-5.03374530008016
20171123,-2.886320679847328
20171124,-0.3947827739146621
20171127,1.8247035754898335
20171128,-0.02372526
20171129,1.4828660770998197
20171130,0.7409423056405327
20171201,0.3614804047206084
20171204,2.1037835244680876
20171205,0.5690093254940795
20171206,-4.000019191153082
20171207,-3.0831494725621447
20171208,-3.919979946103899
20171211,-4.309590335714283
20171212,4.42817874452055
20171213,3.0227189320788455
20171214,-2.05714776903882
20171215,-0.20503547028984478
20171218,0.5186194292043348
20171219,-1.296603322727278
20171220,-0.5624756909335676
20171221,-2.7025982185714286
20171222,0.32379929695652665
20171226,-1.7692274880802792
20171227,1.1766593163464765
20171228,-0.02402679
20171229,-1.2393045677777703
