Date,Return
2013-01-01,0.0
2013-01-02,3.2374100719424534
2013-01-03,-1.4869888475836512
2013-01-04,-5.4945054945054945
2013-01-07,2.083333333333338
2013-01-08,3.1914893617021227
2013-01-09,0.0
2013-01-10,0.0
2013-01-11,2.5641025641025617
2013-01-14,0.37593984962406546
2013-01-15,0.0
2013-01-16,4.15094339622642
2013-01-17,1.1811023622047132
2013-01-18,-0.7968127490039812
2013-01-21,1.9762845849802373
2013-01-22,2.0161290322580645
2013-01-23,0.8230452674897091
2013-01-24,7.468879668049795
2013-01-25,-0.44843049327353307
2013-01-28,-3.5714285714285747
2013-01-29,6.896551724137923
2013-01-30,-2.314814814814815
2013-01-31,-7.239819004524876
2013-02-01,-2.5316455696202596
2013-02-04,3.292181069958851
2013-02-05,5.106382978723401
2013-02-06,0.896860986547082
2013-02-07,0.0
2013-02-08,4.977375565610866
2013-02-11,-1.904761904761898
2013-02-12,1.4018691588784915
2013-02-13,2.3696682464454977
2013-02-14,0.0
2013-02-15,2.9126213592233077
2013-02-18,-0.9999999999999963
2013-02-19,2.9702970297029596
2013-02-20,-2.551020408163265
2013-02-21,-0.49751243781093457
2013-02-22,-3.465346534653462
2013-02-25,6.220095693779891
2013-02-26,10.20408163265306
2013-02-27,-0.568181818181806
2013-02-28,-1.1299435028248548
2013-03-01,6.1452513966480335
2013-03-04,2.380952380952394
2013-03-05,-4.268292682926847
2013-03-06,-0.5847953216374144
2013-03-07,1.1627906976744147
2013-03-08,0.0
2013-03-11,3.5294117647058907
2013-03-12,-3.0487804878048785
2013-03-13,0.5917159763313483
2013-03-14,1.1904761904761862
2013-03-15,1.2048192771084507
2013-03-18,0.6097560975609627
2013-03-19,2.453987730061352
2013-03-20,4.402515723270447
2013-03-21,-4.605263157894744
2013-03-22,6.289308176100629
2013-03-25,0.0
2013-03-26,0.0
2013-03-28,0.0
2013-04-01,-3.3557046979865772
2013-04-02,-7.792207792207799
2013-04-03,0.6024096385542254
2013-04-04,6.0606060606060606
2013-04-05,0.6451612903225784
2013-04-08,-1.9480519480519412
2013-04-09,0.0
2013-04-10,0.0
2013-04-11,1.2738853503184668
2013-04-12,1.2903225806451568
2013-04-15,-1.3071895424836555
2013-04-16,1.2903225806451568
2013-04-17,-7.189542483660116
2013-04-18,1.8292682926829098
2013-04-22,5.590062111801255
2013-04-23,-1.3157894736842175
2013-04-25,1.2987012987013056
2013-04-26,-0.6578947368421146
2013-04-29,0.6535947712418394
2013-04-30,1.315789473684206
2013-05-02,-0.6666666666666643
2013-05-03,-1.9867549668874218
2013-05-06,0.649350649350647
2013-05-07,0.6535947712418394
2013-05-08,-0.6578947368421146
2013-05-09,0.6535947712418394
2013-05-10,0.657894736842103
2013-05-11,-1.9867549668874218
2013-05-13,0.649350649350647
2013-05-14,0.0
2013-05-15,1.307189542483667
2013-05-16,1.9867549668874103
2013-05-17,-1.3513513513513467
2013-05-20,-2.6666666666666687
2013-05-21,3.896103896103894
2013-05-22,2.702702702702705
2013-05-23,0.694444444444442
2013-05-24,-2.0979020979020904
2013-05-27,1.3698630136986254
2013-05-28,2.083333333333338
2013-05-29,0.7092198581560258
2013-05-30,1.4285714285714235
2013-05-31,0.7246376811594305
2013-06-03,1.459854014598535
2013-06-04,0.0
2013-06-05,2.9629629629629655
2013-06-06,-3.816793893129771
2013-06-07,-0.7352941176470562
2013-06-10,-0.7299270072992805
2013-06-11,5.0724637681159495
2013-06-12,0.7633587786259515
2013-06-13,4.615384615384613
2013-06-14,0.0
2013-06-17,-1.6129032258064457
2013-06-18,-1.5873015873015959
2013-06-19,0.0
2013-06-20,0.7812500000000111
2013-06-21,3.937007874015748
2013-06-24,11.475409836065563
2013-06-25,-3.7037037037036904
2013-06-26,5.357142857142854
2013-06-27,0.0
2013-06-28,1.886792452830182
2013-07-01,-10.576923076923073
2013-07-02,0.0
2013-07-03,2.6086956521739193
2013-07-04,5.357142857142854
2013-07-05,-2.8301886792452895
2013-07-08,0.0
2013-07-09,2.752293577981658
2013-07-10,-0.943396226415091
2013-07-11,-0.9345794392523498
2013-07-12,0.925925925925939
2013-07-15,0.0
2013-07-16,0.0
2013-07-17,0.0
2013-07-18,-2.8037383177570163
2013-07-19,3.63636363636364
2013-07-22,4.716981132075472
2013-07-23,2.9702970297029596
2013-07-24,8.163265306122454
2013-07-25,-7.77777777777777
2013-07-26,2.0618556701030855
2013-07-29,10.526315789473683
2013-07-30,0.0
2013-07-31,4.70588235294118
2013-08-01,-16.049382716049394
2013-08-02,-11.702127659574463
2013-08-05,9.523809523809524
2013-08-06,7.368421052631572
2013-08-07,-6.818181818181814
2013-08-08,4.255319148936174
2013-08-12,-4.444444444444448
2013-08-13,-2.1276595744680775
2013-08-14,2.083333333333326
2013-08-16,1.0638297872340388
2013-08-19,5.376344086021505
2013-08-20,-3.409090909090897
2013-08-21,-4.3956043956043995
2013-08-22,3.157894736842113
2013-08-23,-4.347826086956526
2013-08-26,2.083333333333326
2013-08-27,6.382978723404251
2013-08-28,-6.818181818181814
2013-08-29,-1.0638297872340388
2013-08-30,5.263157894736842
2013-09-02,0.0
2013-09-03,-3.333333333333341
2013-09-04,3.2258064516129106
2013-09-05,-3.333333333333341
2013-09-06,-3.2258064516128915
2013-09-10,2.083333333333326
2013-09-11,-4.255319148936174
2013-09-12,-19.387755102040803
2013-09-13,-15.38461538461539
2013-09-16,9.629629629629635
2013-09-17,7.377049180327858
2013-09-18,-6.194690265486719
2013-09-19,0.0
2013-09-20,6.666666666666672
2013-09-23,6.249999999999994
2013-09-24,0.0
2013-09-25,-0.952380952380949
2013-09-26,-2.8301886792452895
2013-09-27,2.752293577981658
2013-09-30,0.0
2013-10-01,-3.7735849056603805
2013-10-03,-9.999999999999996
2013-10-04,0.0
2013-10-07,-1.6528925619834798
2013-10-08,1.62601626016261
2013-10-09,-2.4793388429752126
2013-10-10,0.8064516129032229
2013-10-11,1.62601626016261
2013-10-14,1.6528925619834651
2013-10-15,-0.8403361344537785
2013-10-17,2.500000000000006
2013-10-18,3.4188034188034067
2013-10-21,-1.7699115044247724
2013-10-22,-4.3478260869565215
2013-10-23,0.0
2013-10-24,1.6666666666666607
2013-10-25,-0.8474576271186409
2013-10-28,0.0
2013-10-29,-0.8403361344537785
2013-10-30,-4.166666666666666
2013-10-31,4.0
2013-11-01,0.0
2013-11-03,0.0
2013-11-05,-5.833333333333327
2013-11-06,-6.2992125984252025
2013-11-07,8.888888888888884
2013-11-08,-4.878048780487801
2013-11-11,3.875968992248062
2013-11-12,-3.2258064516129057
2013-11-13,5.468750000000008
2013-11-14,0.0
2013-11-18,-2.4793388429752126
2013-11-19,-2.4193548387096686
2013-11-20,-1.574803149606308
2013-11-21,0.0
2013-11-22,2.3255813953488427
2013-11-25,0.7936507936507908
2013-11-26,-1.5999999999999945
2013-11-27,3.1496062992125875
2013-11-28,-3.2520325203251916
2013-11-29,-1.574803149606308
2013-12-02,3.875968992248062
2013-12-03,0.8064516129032229
2013-12-04,-2.4390243902438935
2013-12-05,1.5873015873015817
2013-12-06,0.0
2013-12-09,0.0
2013-12-10,1.6129032258064602
2013-12-11,0.0
2013-12-12,2.459016393442614
2013-12-13,0.8403361344537785
2013-12-16,-1.6949152542372818
2013-12-17,0.8333333333333304
2013-12-18,2.5210084033613507
2013-12-19,-0.8620689655172384
2013-12-20,3.4188034188034067
2013-12-23,-0.8849557522123862
2013-12-24,-6.140350877192976
2013-12-26,-5.785123966942158
2013-12-27,-5.468749999999995
2013-12-30,1.481481481481476
2013-12-31,-1.5037593984962352
2014-01-01,-19.25925925925927
2014-01-02,11.801242236024857
2014-01-03,0.7042253521126736
2014-01-06,-12.05673758865249
2014-01-07,3.164556962025316
2014-01-08,-4.575163398692805
2014-01-09,-0.6250000000000089
2014-01-10,-19.875776397515523
2014-01-13,-9.84455958549222
2014-01-14,-9.905660377358497
2014-01-15,3.862660944206018
2014-01-16,2.232142857142857
2014-03-03,23.74429223744292
2014-03-04,1.1976047904191574
2014-03-05,0.0
2014-03-06,-4.242424242424238
2014-03-07,0.0
2014-03-10,6.976744186046507
2014-03-11,4.374999999999996
2014-03-12,5.882352941176473
2014-03-13,0.694444444444442
2014-03-14,2.7972027972027997
2014-03-18,1.438848920863317
2014-03-19,-2.1897810218978155
2014-03-20,0.7142857142857117
2014-03-21,0.0
2014-03-24,-3.597122302158273
2014-03-25,2.77777777777778
2014-03-26,0.0
2014-03-27,0.0
2014-03-28,2.142857142857148
2014-03-31,0.7299270072992675
2014-04-01,-4.411764705882351
2014-04-02,-2.8169014084507067
2014-04-03,0.0
2014-04-04,-0.6849315068493127
2014-04-07,0.0
2014-04-09,-5.4421768707483045
2014-04-10,5.16129032258065
2014-04-11,-7.482993197278922
2014-04-15,-3.164556962025316
2014-04-16,3.067484662576687
2014-04-17,-2.531645569620244
2014-04-21,0.0
2014-04-22,0.6172839506172708
2014-04-23,-2.484472049689432
2014-04-25,4.242424242424238
2014-04-28,1.2658227848101333
2014-04-29,-1.282051282051289
2014-04-30,1.2658227848101333
2014-05-02,1.9230769230769162
2014-05-05,1.9607843137254948
2014-05-06,4.666666666666662
2014-05-07,1.398601398601406
2014-05-08,-1.4184397163120643
2014-05-09,0.6993006993007091
2014-05-12,0.7042253521126736
2014-05-13,-4.964539007092206
2014-05-14,-2.0270270270270196
2014-05-15,-3.3112582781456954
2014-05-16,7.692307692307689
2014-05-19,-15.972222222222216
2014-05-20,-10.17964071856287
2014-05-21,-2.717391304347826
2014-05-22,-8.465608465608474
2014-05-23,6.341463414634149
2014-05-26,7.8125
2014-05-27,6.214689265536712
2014-05-28,-19.879518072289137
2014-05-29,4.020100502512549
2014-05-30,3.14136125654451
2014-06-02,-1.6216216216216255
2014-06-03,-3.7234042553191453
2014-06-04,0.0
2014-06-05,-1.025641025641022
2014-06-30,13.705583756345174
2014-07-01,0.5882352941176554
2014-07-02,4.142011834319523
2014-07-03,1.2345679012345634
2014-07-04,0.0
2014-07-07,0.6249999999999978
2014-07-08,4.402515723270447
2014-07-09,3.289473684210526
2014-07-10,-2.7210884353741522
2014-07-11,1.3245033112582734
2014-07-14,3.3557046979865772
2014-07-15,-2.77777777777778
2014-07-16,-1.3513513513513467
2014-07-17,-1.3333333333333286
2014-07-18,-1.3157894736842175
2014-07-21,1.2987012987013056
2014-07-22,-2.631578947368424
2014-07-23,0.0
2014-07-24,-1.9230769230769278
2014-07-25,3.1446540880503147
2014-07-28,3.896103896103894
2014-07-30,2.0270270270270316
2014-07-31,0.0
2014-08-01,-1.3793103448275814
2014-08-04,-5.4421768707483045
2014-08-05,0.6451612903225784
2014-08-06,1.2987012987013056
2014-08-07,0.657894736842103
2014-08-08,3.3112582781456954
2014-08-11,1.3698630136986254
2014-08-12,-4.861111111111106
2014-08-13,7.284768211920528
2014-08-14,-1.4285714285714235
2014-08-18,4.225352112676054
2014-08-19,-2.941176470588238
2014-08-20,-2.142857142857148
2014-08-21,0.0
2014-08-22,-4.195804195804193
2014-08-25,6.040268456375841
2014-08-26,1.4285714285714235
2014-08-27,-0.7246376811594177
2014-08-28,0.7194244604316521
2014-09-01,0.0
2014-09-02,-5.072463768115937
2014-09-03,-0.6896551724137907
2014-09-04,2.054794520547938
2014-09-05,-2.0979020979020904
2014-09-08,-4.794520547945213
2014-09-09,-8.496732026143796
2014-09-10,-2.4096385542168584
2014-09-11,-19.999999999999993
2014-09-12,-2.9411764705882426
2014-09-15,3.33333333333333
2014-09-16,9.852216748768472
2014-09-17,3.8251366120218537
2014-09-18,-3.409090909090897
2014-09-19,3.8461538461538423
2014-09-22,1.7142857142857182
2014-09-23,3.4883720930232434
2014-09-24,3.6144578313253093
2014-09-25,3.125
2014-09-26,0.0
2014-09-29,-5.16129032258065
2014-09-30,4.907975460122704
2014-10-01,0.0
2014-10-07,1.2903225806451568
2014-10-08,-0.6535947712418277
2014-10-09,-1.298701298701294
2014-10-10,0.6410256410256387
2014-10-13,-1.9354838709677464
2014-10-14,0.0
2014-10-16,1.8987341772151944
2014-10-17,3.225806451612903
2014-10-20,0.0
2014-10-21,0.6666666666666643
2014-10-22,0.0
2014-10-23,-5.369127516778517
2014-10-27,4.458598726114645
2014-10-28,-0.6666666666666643
2014-10-29,0.6622516556291367
2014-10-30,0.0
2014-10-31,-1.3333333333333286
2014-11-03,-3.289473684210526
2014-11-05,0.0
2014-11-07,2.5477707006369337
2014-11-10,3.2679738562091507
2014-11-11,-6.081081081081071
2014-11-12,0.6369426751592334
2014-11-13,3.2051282051282057
2014-11-14,-6.622516556291402
2014-11-17,0.6211180124223691
2014-11-18,-0.6250000000000089
2014-11-19,-16.149068322981353
2014-11-20,8.02139037433155
2014-11-21,-0.5813953488372177
2014-11-24,6.358381502890182
2014-11-25,3.7037037037037015
2014-11-26,0.6410256410256387
2014-11-27,0.0
2014-11-28,1.2903225806451568
2014-12-01,6.535947712418301
2014-12-02,-2.0979020979020904
2014-12-03,-10.958904109589039
2014-12-04,3.08641975308642
2014-12-05,0.6369426751592334
2014-12-08,0.6410256410256387
2014-12-09,2.580645161290325
2014-12-10,0.6622516556291367
2014-12-11,0.0
2014-12-12,-0.6666666666666643
2014-12-15,1.9867549668874103
2014-12-16,5.40540540540541
2014-12-17,0.7142857142857117
2014-12-18,-4.316546762589925
2014-12-19,0.6896551724137907
2014-12-22,1.3888888888888962
2014-12-23,-0.7042253521126861
2014-12-24,-6.2937062937062835
2014-12-26,1.315789473684206
2014-12-29,1.3333333333333286
2014-12-30,0.6756756756756852
2014-12-31,0.6802721088435351
2015-01-01,-0.6849315068493127
2015-01-02,-2.040816326530617
2015-01-05,0.0
2015-01-06,4.666666666666662
2015-01-07,0.6993006993007091
2015-01-08,-2.8169014084507067
2015-01-09,-0.6849315068493127
2015-01-12,1.3605442176870701
2015-01-13,0.6896551724137907
2015-01-14,-4.861111111111106
2015-01-15,0.0
2015-01-16,3.3112582781456954
2015-01-19,-1.3698630136986376
2015-01-20,0.0
2015-01-21,-2.7027027027026933
2015-01-22,1.315789473684206
2015-01-23,2.6666666666666687
2015-01-27,0.6849315068493127
2015-01-28,1.3793103448275814
2015-01-29,2.097902097902103
2015-01-30,0.0
2015-02-02,-0.7142857142857117
2015-02-03,-1.4184397163120643
2015-02-04,2.7972027972027997
2015-02-05,2.8776978417266212
2015-02-06,2.2222222222222276
2015-02-09,3.0303030303030196
2015-02-10,0.7812500000000111
2015-02-11,-1.574803149606308
2015-02-12,-2.325581395348829
2015-02-13,-0.7575757575757683
2015-02-16,-0.7518796992481176
2015-02-18,0.0
2015-02-19,-1.4925373134328304
2015-02-20,0.0
2015-02-23,0.7352941176470562
2015-02-24,1.481481481481476
2015-02-25,2.255639097744366
2015-02-26,2.307692307692313
2015-02-27,-3.1496062992126013
2015-02-28,3.816793893129771
2015-03-02,-14.28571428571429
2015-03-03,1.3888888888888962
2015-03-04,0.0
2015-03-05,2.112676056338021
2015-03-09,2.8776978417266212
2015-03-10,-1.481481481481476
2015-03-11,2.1897810218978027
2015-03-12,5.223880597014934
2015-03-13,0.0
2015-03-16,1.5748031496062938
2015-03-17,4.799999999999997
2015-03-18,-0.8403361344537785
2015-03-19,-2.500000000000006
2015-03-20,2.439024390243908
2015-03-23,3.333333333333336
2015-03-24,-1.7241379310344922
2015-03-25,-1.6949152542372818
2015-03-26,4.9999999999999964
2015-03-27,-0.8771929824561372
2015-03-30,-3.4782608695652204
2015-03-31,0.8403361344537785
2015-04-01,-4.23728813559322
2015-04-06,-9.756097560975602
2015-04-07,-0.740740740740738
2015-04-08,1.4705882352941124
2015-04-09,1.4925373134328437
2015-04-10,-3.787878787878788
2015-04-13,-5.109489051094899
2015-04-15,-2.083333333333326
2015-04-16,-12.925170068027224
2015-04-17,1.8072289156626546
2015-04-20,3.067484662576687
2015-04-21,-1.265822784810122
2015-04-22,0.6249999999999978
2015-04-23,0.0
2015-04-24,4.402515723270447
2015-04-27,-2.631578947368424
2015-04-28,-5.769230769230772
2015-04-29,-2.4242424242424154
2015-04-30,-0.5917159763313694
2015-05-04,-1.17647058823529
2015-05-05,-1.1627906976744147
2015-05-06,3.4482758620689538
2015-05-07,5.952380952380952
2015-05-08,5.06329113924051
2015-05-11,-1.3333333333333286
2015-05-12,0.0
2015-05-13,0.657894736842103
2015-05-14,0.0
2015-05-15,-1.3245033112582854
2015-05-18,-9.15032679738561
2015-05-19,-3.592814371257494
2015-05-20,0.0
2015-05-21,-9.248554913294784
2015-05-22,-0.5291005291005366
2015-05-25,-1.0526315789473648
2015-05-26,0.0
2015-05-27,0.5208333333333223
2015-05-28,-2.0942408376963275
2015-05-29,1.538461538461542
2015-06-01,-5.729166666666674
2015-06-02,0.9852216748768439
2015-06-03,3.482587064676631
2015-06-04,-3.0927835051546464
2015-06-05,2.5
2015-06-08,1.025641025641022
2015-06-09,-0.5181347150258957
2015-06-10,-1.0309278350515612
2015-06-11,1.0204081632653206
2015-06-12,0.5154639175257623
2015-06-15,-0.5181347150258957
2015-06-16,0.5154639175257623
2015-06-17,-0.5181347150258957
2015-06-18,0.5154639175257623
2015-06-19,0.0
2015-06-22,-1.0362694300518096
2015-06-23,0.5128205128205201
2015-06-24,0.5154639175257623
2015-06-25,-0.5181347150258957
2015-06-26,0.0
2015-06-29,0.0
2015-06-30,0.0
2015-07-01,-0.5154639175257806
2015-07-02,-0.5128205128205201
2015-07-03,1.0204081632653206
2015-07-06,-4.63917525773197
2015-07-07,0.9852216748768439
2015-07-08,-4.975124378109452
2015-07-09,-18.483412322274873
2015-07-10,4.0
2015-07-13,-0.8333333333333304
2015-07-14,6.198347107438017
2015-07-15,5.726872246696039
2015-07-16,1.4018691588784915
2015-07-17,-4.265402843601889
2015-07-20,-1.3636363636363669
2015-07-21,1.345291479820631
2015-07-22,1.818181818181812
2015-07-23,-3.7037037037036904
2015-07-24,-9.821428571428585
2015-07-27,2.439024390243908
2015-07-28,-0.41666666666667257
2015-07-29,-7.883817427385886
2015-07-30,-11.923076923076929
2015-07-31,5.841924398625439
2015-08-03,-1.4598540145985481
2015-08-04,-0.35971223021581966
2015-08-05,0.7168458781361982
2015-08-06,-0.3610108303249149
2015-08-07,1.7985611510791366
2015-08-10,1.8315018315018317
2015-08-11,7.462686567164178
2015-08-12,-4.032258064516129
2015-08-13,2.7131782945736407
2015-08-14,-0.7968127490039812
2015-08-17,-2.3715415019762762
2015-08-18,-0.7722007722007832
2015-08-19,1.5325670498084372
2015-08-20,3.5019455252918235
2015-08-21,0.8064516129032229
2015-08-24,6.910569105691068
2015-08-25,-1.7467248908297035
2015-08-26,1.2875536480686725
2015-08-27,-2.6086956521739193
2015-08-28,-8.050847457627112
2015-08-31,0.0
2015-09-01,2.7450980392156836
2015-09-02,5.241935483870971
2015-09-03,0.8510638297872309
2015-09-04,4.721030042918461
2015-09-07,8.10810810810811
2015-09-08,0.0
2015-09-09,-1.4705882352941213
2015-09-10,-3.8647342995169116
2015-09-11,1.3953488372093057
2015-09-14,-0.4716981132075539
2015-09-15,2.8169014084507107
2015-09-16,-0.9661835748792237
2015-09-18,0.47846889952152094
2015-09-21,0.48076923076923755
2015-09-22,-1.4492753623188441
2015-09-23,-0.476190476190483
2015-09-24,0.0
2015-09-28,-4.739336492890995
2015-09-29,0.9049773755656236
2015-09-30,2.739726027397251
2015-10-01,-0.9389671361502313
2015-10-05,-4.651162790697675
2015-10-06,2.666666666666673
2015-10-07,-0.913242009132433
2015-10-08,-1.8099547511312153
2015-10-09,0.8888888888888857
2015-10-12,-2.242152466367713
2015-10-13,-2.1929824561403506
2015-10-14,1.2875536480686725
2015-10-15,0.4347826086956583
2015-10-16,-3.9301310043668223
2015-10-19,-19.747899159663863
2015-10-20,-4.912280701754381
2015-10-21,4.347826086956513
2015-10-23,4.195804195804206
2015-10-26,2.91970802919707
2015-10-27,1.127819548872183
2015-10-28,2.281368821292781
2015-10-29,-2.7237354085603087
2015-10-30,2.6515151515151487
2015-11-02,3.5019455252918235
2015-11-03,1.2096774193548416
2015-11-04,1.632653061224484
2015-11-05,-4.564315352697086
2015-11-06,-1.984126984126984
2015-11-09,2.3346303501945442
2015-11-10,2.788844621513955
2015-11-11,-4.5081967213114815
2015-11-13,0.3921568627451036
2015-11-16,-11.811023622047244
2015-11-17,1.7605633802816902
2015-11-18,4.659498207885295
2015-11-19,-1.8796992481203008
2015-11-20,-4.428044280442801
2015-11-23,0.0
2015-11-24,-1.4134275618374508
2015-11-26,1.393728222996511
2015-11-27,-2.4734982332155453
2015-11-30,1.3793103448275814
2015-12-01,-16.783216783216773
2015-12-02,5.389221556886219
2015-12-03,-9.177215189873413
2015-12-04,-6.376811594202906
2015-12-07,-1.6348773841961695
2015-12-08,-1.3404825737265416
2015-12-09,3.439153439153432
2015-12-10,-6.8493150684931505
2015-12-11,-5.897435897435891
2015-12-14,-3.8740920096852336
2015-12-15,-1.6317016317016386
2015-12-16,-19.95412844036696
2015-12-17,-9.942638623326966
2015-12-18,-9.913043478260875
2015-12-21,-4.430379746835438
2015-12-22,4.999999999999996
2015-12-23,4.944178628389157
2015-12-24,4.865771812080535
2015-12-28,4.938271604938279
2015-12-29,4.823747680890541
2015-12-30,3.7037037037037015
2015-12-31,-4.858299595141697
2016-01-01,-2.509652509652518
2016-01-04,0.18832391713747915
2016-01-05,0.9433962264150944
2016-01-06,-0.38095238095238637
2016-01-07,4.9335863377609135
2016-01-08,0.3992015968063929
2016-01-11,4.008016032064128
2016-01-12,1.8789144050104356
2016-01-13,1.276595744680854
2016-01-14,3.87931034482758
2016-01-15,2.914798206278036
2016-01-18,4.849884526558879
2016-01-19,2.9126213592233077
2016-01-20,5.0
2016-01-21,4.9999999999999964
2016-01-22,-4.986149584487527
2016-01-25,-4.749340369393151
2016-01-27,-4.785894206549115
2016-01-28,-4.8076923076923075
2016-01-29,-4.816513761467893
2016-02-01,-4.814004376367605
2016-02-02,-3.340292275574116
2016-02-03,3.8383838383838356
2016-02-04,-1.4705882352941086
2016-02-05,3.31262939958591
2016-02-08,1.070663811563169
2016-02-09,0.0
2016-02-10,4.978354978354988
2016-02-11,4.7835990888382725
2016-02-12,4.784688995215311
2016-02-15,-4.773869346733683
2016-02-16,-4.796163069544365
2016-02-17,0.0
2016-02-18,-1.1441647597254003
2016-02-19,1.1312217194570136
2016-02-22,0.0
2016-02-23,-0.9153318077803171
2016-02-24,-1.3605442176870781
2016-02-25,-1.789709172259501
2016-02-26,0.6593406593406531
2016-02-29,0.22123893805310046
2016-03-01,-3.9911308203991065
2016-03-02,-4.904051172707899
2016-03-03,2.845528455284564
2016-03-04,-3.765690376569047
2016-03-08,0.2016129032258093
2016-03-09,-9.4949494949495
2016-03-10,5.535055350553505
2016-03-11,-4.296874999999992
2016-03-14,1.1235955056179803
2016-03-15,1.325757575757568
2016-03-16,0.0
2016-03-17,3.0710172744721715
2016-03-18,-2.178217821782181
2016-03-21,-2.5193798449612346
2016-03-22,1.890359168241966
2016-03-23,1.5414258188824608
2016-03-28,1.3698630136986356
2016-03-29,1.1904761904761934
2016-03-30,-3.212851405622493
2016-03-31,-0.7782101167315147
2016-04-01,1.7374517374517346
2016-04-04,0.7858546168958714
2016-04-05,-2.7722772277227694
2016-04-06,-1.5414258188824745
2016-04-07,5.123339658444028
2016-04-08,-0.40000000000000563
2016-04-11,2.3904382470119576
2016-04-12,1.2244897959183703
2016-04-13,1.0330578512396695
2016-04-18,3.1315240083507305
2016-04-20,-2.801724137931044
2016-04-21,1.2578616352201286
2016-04-22,-0.2123142250530816
2016-04-25,0.211864406779664
2016-04-26,2.335456475583867
2016-04-27,-1.956521739130432
2016-04-28,3.6247334754797347
2016-04-29,0.44247787610620093
2016-05-02,-0.22222222222222537
2016-05-03,-1.3303769401330408
2016-05-04,0.0
2016-05-05,-0.21881838074397003
2016-05-06,1.7467248908296884
2016-05-09,-3.111111111111108
2016-05-10,-3.0172413793103416
2016-05-11,1.882845188284516
2016-05-12,-1.9189765458422146
2016-05-13,3.347280334728022
2016-05-16,-0.8658008658008627
2016-05-17,-0.6437768240343286
2016-05-18,1.4925373134328268
2016-05-19,7.792207792207795
2016-05-20,-2.8169014084506943
2016-05-23,-1.82648401826485
2016-05-24,-11.210762331838565
2016-05-25,0.4032258064516186
2016-05-26,5.870445344129552
2016-05-27,0.4301075268817265
2016-05-30,-1.5118790496760321
2016-05-31,2.127659574468085
2016-06-01,-6.739130434782611
2016-06-02,-0.8146639511201601
2016-06-03,2.0202020202020203
2016-06-06,-3.0927835051546393
2016-06-07,1.5999999999999945
2016-06-08,0.6097560975609843
2016-06-09,-1.8404907975460092
2016-06-10,1.4056224899598309
2016-06-13,2.4439918533604947
2016-06-14,-0.8350730688935253
2016-06-15,-6.211180124223603
2016-06-16,1.559454191033133
2016-06-17,0.0
2016-06-20,0.39603960396040166
2016-06-21,0.5964214711729565
2016-06-22,1.0
2016-06-23,0.20202020202020488
2016-06-24,0.40485829959513314
2016-06-27,0.40650406504065617
2016-06-28,1.8367346938775482
2016-06-29,-0.20790020790021085
2016-06-30,-8.506224066390029
2016-07-01,-0.7648183556405462
2016-07-04,-0.18975332068310116
2016-07-05,1.893939393939394
2016-07-07,0.7722007722007695
2016-07-08,0.5836575875486326
2016-07-11,-1.3698630136986218
2016-07-12,0.3861003861003779
2016-07-13,0.0
2016-07-14,0.3875968992248117
2016-07-15,0.5836575875486326
2016-07-18,1.3698630136986356
2016-07-19,2.9761904761904763
2016-07-20,1.2269938650306778
2016-07-21,0.6211180124223544
2016-07-22,-1.0416666666666665
2016-07-25,1.0309278350515463
2016-07-26,-0.20833333333333628
2016-07-27,0.20790020790021085
2016-07-28,0.624999999999994
2016-07-29,0.0
2016-08-01,-0.6289308176100569
2016-08-02,0.624999999999994
2016-08-03,1.4675052410901526
2016-08-04,-1.276595744680854
2016-08-05,1.0504201680672267
2016-08-08,-0.4246284501061481
2016-08-09,-0.42283298097252187
2016-08-10,1.263157894736845
2016-08-11,1.7057569296375208
2016-08-12,-1.9522776572668081
2016-08-16,0.0
2016-08-17,1.7021276595744619
2016-08-18,2.1645021645021645
2016-08-19,-0.8849557522123862
2016-08-22,-3.5087719298245648
2016-08-23,1.4830508474576332
2016-08-24,-2.5806451612903287
2016-08-25,-5.0314465408805
2016-08-26,-1.996007984031936
2016-08-29,3.7181996086105644
2016-08-30,0.20325203252032809
2016-08-31,2.0366598778004072
2016-09-01,1.871101871101868
2016-09-02,-1.906779661016946
2016-09-06,-2.0790020790020787
2016-09-07,-10.794297352342152
2016-09-08,-2.5735294117647034
2016-09-09,6.810035842293901
2016-09-12,2.307692307692313
2016-09-14,-5.905511811023622
2016-09-15,1.486988847583638
2016-09-16,-2.6415094339622613
2016-09-19,-1.102941176470591
2016-09-20,4.3636363636363615
2016-09-21,1.1406844106463905
2016-09-22,-2.8846153846153846
2016-09-23,0.5607476635513965
2016-09-26,-0.5639097744360848
2016-09-27,2.990654205607479
2016-09-28,-0.9633911368015415
2016-09-29,4.19847328244274
2016-09-30,-1.5936254980079625
2016-10-03,-0.7843137254901933
2016-10-04,-2.7237354085603087
2016-10-05,0.946969696969697
2016-10-06,4.397705544933073
2016-10-07,-4.799999999999997
2016-10-10,-4.007633587786262
2016-10-13,-1.1009174311926633
2016-10-14,-4.537205081669692
2016-10-17,2.2569444444444517
2016-10-18,0.8880994671403198
2016-10-19,0.0
2016-10-20,0.5376344086021455
2016-10-21,0.5405405405405355
2016-10-24,-0.54347826086956
2016-10-25,-4.504504504504505
2016-10-26,2.9310344827586254
2016-10-27,-0.355239786856133
2016-10-28,0.7079646017699089
2016-10-30,-0.35650623885917243
2016-11-01,-6.394316163410305
2016-11-02,-0.5008347245409086
2016-11-03,-13.621262458471763
2016-11-04,4.970760233918137
2016-11-07,-0.9230769230769144
2016-11-08,-0.15243902439025692
2016-11-09,4.109589041095894
2016-11-10,0.6349206349206327
2016-11-11,5.111821086261985
2016-11-15,3.8720538720538675
2016-11-16,1.2259194395796897
2016-11-17,3.368794326241132
2016-11-18,0.0
2016-11-21,4.036697247706427
2016-11-22,-6.118546845124289
2016-11-23,-4.504504504504505
2016-11-24,0.17241379310345073
2016-11-25,-0.1727115716753047
2016-11-28,0.17241379310345073
2016-11-29,-3.2815198618307404
2016-11-30,-5.852842809364549
2016-12-01,5.6872037914691855
2016-12-02,2.345058626465671
2016-12-05,1.886792452830179
2016-12-06,-4.370629370629371
2016-12-07,2.010050251256286
2016-12-08,-20.000000000000004
2016-12-09,-0.42735042735042333
2016-12-12,3.6879432624113395
2016-12-13,3.6818851251840936
2016-12-14,-6.269113149847086
2016-12-15,-4.460431654676251
2016-12-16,2.479338842975203
2016-12-19,0.423728813559318
2016-12-20,3.4042553191489446
2016-12-21,0.8810572687224587
2016-12-22,1.777777777777782
2016-12-23,0.7541478129713424
2016-12-26,0.30395136778115933
2016-12-27,-0.4573170731707491
2016-12-28,-1.0622154779969477
2016-12-29,-1.5015015015015016
2016-12-30,-2.3668639053254568
2017-01-02,-2.0231213872832243
2017-01-03,0.4249291784702509
2017-01-04,-6.2588904694167935
2017-01-05,-3.6144578313253053
2017-01-06,2.3255813953488516
2017-01-09,-0.2645502645502683
2017-01-10,-0.1319261213720429
2017-01-11,-5.270092226613966
2017-01-12,3.879849812265342
2017-01-13,0.39062499999999634
2017-01-16,-0.6535947712418301
2017-01-17,1.6883116883116847
2017-01-18,-1.5852047556142705
2017-01-19,0.3901170351105479
2017-01-20,2.219321148825051
2017-01-23,-0.4005340453938547
2017-01-24,1.0638297872340388
2017-01-25,1.2096774193548463
2017-01-27,1.9047619047619126
2017-01-30,10.402219140083218
2017-01-31,-2.1671826625387087
2017-02-01,0.15151515151514292
2017-02-02,-1.6691957511380793
2017-02-03,-0.7462686567164178
2017-02-06,-2.8148148148148233
2017-02-07,0.2881844380403499
2017-02-08,0.7225433526011561
2017-02-09,-4.803493449781655
2017-02-10,-0.138888888888881
2017-02-13,1.2482662968099745
2017-02-14,0.8426966292134951
2017-02-15,4.107648725212453
2017-02-16,0.14771048744462115
2017-02-17,0.29585798816566367
2017-02-20,-0.44510385756676135
2017-02-21,0.7385524372230428
2017-02-22,3.1250000000000124
2017-02-23,1.996927803379412
2017-02-27,-0.47021943573667274
2017-02-28,-0.46801872074884776
2017-03-01,-2.329192546583851
2017-03-02,-1.8209408194233514
2017-03-03,-0.2980625931445646
2017-03-06,3.5661218424962726
2017-03-07,0.46224961479200516
2017-03-08,1.8575851393188791
2017-03-09,1.8927444794952615
2017-03-10,-0.6430868167202549
2017-03-14,-0.31948881789136696
2017-03-15,-1.5923566878980893
2017-03-16,-0.3134796238244559
2017-03-17,0.31250000000000444
2017-03-20,-0.3134796238244559
2017-03-21,-0.15624999999999112
2017-03-22,2.3400936037441387
2017-03-23,-3.354632587859427
2017-03-24,-1.391035548686231
2017-03-27,0.6097560975609627
2017-03-28,0.7668711656441718
2017-03-29,1.8547140649149967
2017-03-30,-4.881889763779519
2017-03-31,1.3513513513513387
2017-04-03,0.0
2017-04-05,0.76103500761035
2017-04-06,-1.2269938650306704
2017-04-07,4.393939393939392
2017-04-10,-2.218700475435814
2017-04-11,0.0
2017-04-12,2.015503875968988
2017-04-13,0.9493670886075972
2017-04-17,1.5974440894568689
2017-04-18,2.5974025974025996
2017-04-19,0.16666666666666904
2017-04-20,-0.16694490818030286
2017-04-21,-2.166666666666662
2017-04-24,2.2838499184339294
2017-04-25,4.173622704507513
2017-04-26,-0.8710801393728222
2017-04-27,-0.1727115716753047
2017-04-28,0.0
2017-05-02,-0.6896551724137907
2017-05-03,0.8561643835616438
2017-05-04,-0.6908462867012065
2017-05-05,0.8576329331046313
2017-05-08,-0.8650519031141869
2017-05-09,-0.8576329331046313
2017-05-10,-4.421768707482996
2017-05-11,-1.6286644951140066
2017-05-12,0.16025641025641252
2017-05-15,3.8523274478330634
2017-05-16,0.6677796327211997
2017-05-17,0.5042016806722641
2017-05-18,1.5202702702702797
2017-05-19,0.8576329331046313
2017-05-22,0.8650519031141869
2017-05-23,2.0942408376963275
2017-05-24,2.4955436720142576
2017-05-25,-3.8391224862888373
2017-05-26,-1.2323943661971881
2017-05-29,-0.695652173913041
2017-05-30,4.663212435233153
2017-05-31,-0.9057971014492754
2017-06-01,2.1543985637342957
2017-06-02,-0.7339449541284377
2017-06-05,-0.5464480874317018
2017-06-06,1.086956521739133
2017-06-07,0.73260073260073
2017-06-08,2.952029520295205
2017-06-09,-2.4714828897338346
2017-06-12,0.0
2017-06-13,-3.710575139146568
2017-06-14,3.0411449016100103
2017-06-15,0.7380073800738112
2017-06-16,0.557620817843861
2017-06-19,-0.3738317757009399
2017-06-20,0.5586592178771029
2017-06-21,0.5617977528089835
2017-06-22,0.18832391713747915
2017-06-23,2.07547169811321
2017-06-27,3.6608863198458548
2017-06-28,2.200000000000003
2017-06-29,-0.4089979550102308
2017-06-30,1.8329938900203637
2017-07-03,-1.0373443983402488
2017-07-04,-1.2320328542094339
2017-07-05,-2.028397565922921
2017-07-06,0.0
2017-07-07,-0.39761431411531384
2017-07-10,0.5940594059405885
2017-07-11,1.9920318725099602
2017-07-12,0.0
2017-07-13,0.20325203252032809
2017-07-14,-1.6293279022403202
2017-07-17,-2.6052104208416917
2017-07-18,2.9296875
2017-07-19,1.8108651911468925
2017-07-20,-2.0491803278688527
2017-07-21,0.6024096385542111
2017-07-24,-0.20202020202020488
2017-07-25,0.0
2017-07-26,1.0080645161290323
2017-07-27,3.462321792260698
2017-07-28,2.109704641350211
2017-07-31,0.8620689655172384
2017-08-01,-1.7391304347826024
2017-08-02,1.4957264957264869
2017-08-03,2.81995661605207
2017-08-04,1.5624999999999907
2017-08-07,0.45351473922903135
2017-08-08,4.328018223234621
2017-08-09,2.380952380952381
2017-08-10,4.390243902439018
2017-08-11,-1.5306122448979447
2017-08-14,-18.84422110552764
2017-08-16,-14.799154334038056
2017-08-17,-2.7624309392265194
2017-08-18,1.2544802867383438
2017-08-21,3.266787658802185
2017-08-22,9.005628517823636
2017-08-23,1.6494845360824684
2017-08-24,0.0
2017-08-28,1.2578616352201286
2017-08-29,0.4246284501061632
2017-08-30,1.0660980810234542
2017-08-31,1.5086206896551633
2017-09-01,-3.0634573304157517
2017-09-04,-3.821656050955408
2017-09-05,-0.2044989775051154
2017-09-06,2.2448979591836764
2017-09-07,0.6263048016701402
2017-09-08,-0.8403361344537785
2017-09-11,1.250000000000003
2017-09-12,0.0
2017-09-13,0.21097046413502413
2017-09-14,-0.6342494714587829
2017-09-15,-3.3613445378151288
2017-09-18,0.8130081300813123
2017-09-19,-10.04098360655739
2017-09-20,1.1173184357541925
2017-09-21,3.5781544256120497
2017-09-22,5.859375
2017-09-25,1.659751037344407
2017-09-26,-2.5316455696202596
2017-09-27,0.4115226337448618
2017-09-28,0.0
2017-09-29,2.479338842975198
2017-10-03,1.4830508474576332
2017-10-04,-19.569892473118284
2017-10-05,8.453237410071948
2017-10-06,-2.357563850687628
2017-10-09,1.5355086372360927
2017-10-10,0.3898635477582763
2017-10-11,1.76125244618395
2017-10-12,0.9960159362549801
2017-10-13,-3.219315895372222
2017-10-16,4.288499025341123
2017-10-17,-5.906313645621178
2017-10-18,-1.1538461538461564
2017-10-19,2.661596958174902
2017-10-23,2.5390625000000084
2017-10-24,-1.2024048096192415
2017-10-25,-0.39603960396040166
2017-10-26,1.1834319526627246
2017-10-27,-0.19960079840319644
2017-10-30,-1.1952191235059646
2017-10-31,0.7874015748031469
2017-11-01,0.39682539682538837
2017-11-02,-2.191235059760945
2017-11-03,-0.3898635477582902
2017-11-06,0.38834951456311234
2017-11-07,3.118908382066266
2017-11-08,-3.822937625754524
2017-11-09,1.5503875968992331
2017-11-10,-0.984251968503937
2017-11-13,-5.847953216374269
2017-11-14,3.130755064456714
2017-11-15,5.13307984790875
2017-11-16,0.0
2017-11-17,-0.20040080160320925
2017-11-20,0.0
2017-11-21,0.20000000000000281
2017-11-22,-5.01002004008016
2017-11-23,-2.8625954198473282
2017-11-24,-0.3710575139146621
2017-11-27,1.8484288354898335
2017-11-28,0.0
2017-11-29,1.5065913370998196
2017-11-30,0.7648183556405327
2017-12-01,0.38535645472060837
2017-12-04,2.1276595744680877
2017-12-05,0.5928853754940795
2017-12-06,-3.9761431411530817
2017-12-07,-3.0592734225621445
2017-12-08,-3.8961038961038987
2017-12-11,-4.285714285714283
2017-12-12,4.45205479452055
2017-12-13,3.0465949820788456
2017-12-14,-2.0332717190388196
2017-12-15,-0.18115942028984477
2017-12-18,0.5424954792043348
2017-12-19,-1.272727272727278
2017-12-20,-0.5385996409335676
2017-12-21,-2.6785714285714284
2017-12-22,0.34782608695652667
2017-12-26,-1.7452006980802792
2017-12-27,1.2006861063464764
2017-12-28,0.0
2017-12-29,-1.2152777777777704
