Date,Return
20130101,0.0
20130102,3.2374100719424534
20130103,-1.4869888475836512
20130104,-5.4945054945054945
20130107,2.083333333333338
20130108,3.1914893617021227
20130109,0.0
20130110,0.0
20130111,2.5641025641025617
20130114,0.37593984962406546
20130115,0.0
20130116,4.15094339622642
20130117,1.1811023622047132
20130118,-0.7968127490039812
20130121,1.9762845849802373
20130122,2.0161290322580645
20130123,0.8230452674897091
20130124,7.468879668049795
20130125,-0.44843049327353307
20130128,-3.5714285714285747
20130129,6.896551724137923
20130130,-2.314814814814815
20130131,-7.239819004524876
20130201,-2.5316455696202596
20130204,3.292181069958851
20130205,5.106382978723401
20130206,0.896860986547082
20130207,0.0
20130208,4.977375565610866
20130211,-1.904761904761898
20130212,1.4018691588784915
20130213,2.3696682464454977
20130214,0.0
20130215,2.9126213592233077
20130218,-0.9999999999999963
20130219,2.9702970297029596
20130220,-2.551020408163265
20130221,-0.49751243781093457
20130222,-3.465346534653462
20130225,6.220095693779891
20130226,10.20408163265306
20130227,-0.568181818181806
20130228,-1.1299435028248548
20130301,6.1452513966480335
20130304,2.380952380952394
20130305,-4.268292682926847
20130306,-0.5847953216374144
20130307,1.1627906976744147
20130308,0.0
20130311,3.5294117647058907
20130312,-3.0487804878048785
20130313,0.5917159763313483
20130314,1.1904761904761862
20130315,1.2048192771084507
20130318,0.6097560975609627
20130319,2.453987730061352
20130320,4.402515723270447
20130321,-4.605263157894744
20130322,6.289308176100629
20130325,0.0
20130326,0.0
20130328,0.0
20130401,-3.3557046979865772
20130402,-7.792207792207799
20130403,0.6024096385542254
20130404,6.0606060606060606
20130405,0.6451612903225784
20130408,-1.9480519480519412
20130409,0.0
20130410,0.0
20130411,1.2738853503184668
20130412,1.2903225806451568
20130415,-1.3071895424836555
20130416,1.2903225806451568
20130417,-7.189542483660116
20130418,1.8292682926829098
20130422,5.590062111801255
20130423,-1.3157894736842175
20130425,1.2987012987013056
20130426,-0.6578947368421146
20130429,0.6535947712418394
20130430,1.315789473684206
20130502,-0.6666666666666643
20130503,-1.9867549668874218
20130506,0.649350649350647
20130507,0.6535947712418394
20130508,-0.6578947368421146
20130509,0.6535947712418394
20130510,0.657894736842103
20130511,-1.9867549668874218
20130513,0.649350649350647
20130514,0.0
20130515,1.307189542483667
20130516,1.9867549668874103
20130517,-1.3513513513513467
20130520,-2.6666666666666687
20130521,3.896103896103894
20130522,2.702702702702705
20130523,0.694444444444442
20130524,-2.0979020979020904
20130527,1.3698630136986254
20130528,2.083333333333338
20130529,0.7092198581560258
20130530,1.4285714285714235
20130531,0.7246376811594305
20130603,1.459854014598535
20130604,0.0
20130605,2.9629629629629655
20130606,-3.816793893129771
20130607,-0.7352941176470562
20130610,-0.7299270072992805
20130611,5.0724637681159495
20130612,0.7633587786259515
20130613,4.615384615384613
20130614,0.0
20130617,-1.6129032258064457
20130618,-1.5873015873015959
20130619,0.0
20130620,0.7812500000000111
20130621,3.937007874015748
20130624,11.475409836065563
20130625,-3.7037037037036904
20130626,5.357142857142854
20130627,0.0
20130628,1.886792452830182
20130701,-10.576923076923073
20130702,0.0
20130703,2.6086956521739193
20130704,5.357142857142854
20130705,-2.8301886792452895
20130708,0.0
20130709,2.752293577981658
20130710,-0.943396226415091
20130711,-0.9345794392523498
20130712,0.925925925925939
20130715,0.0
20130716,0.0
20130717,0.0
20130718,-2.8037383177570163
20130719,3.63636363636364
20130722,4.716981132075472
20130723,2.9702970297029596
20130724,8.163265306122454
20130725,-7.77777777777777
20130726,2.0618556701030855
20130729,10.526315789473683
20130730,0.0
20130731,4.70588235294118
20130801,-16.049382716049394
20130802,-11.702127659574463
20130805,9.523809523809524
20130806,7.368421052631572
20130807,-6.818181818181814
20130808,4.255319148936174
20130812,-4.444444444444448
20130813,-2.1276595744680775
20130814,2.083333333333326
20130816,1.0638297872340388
20130819,5.376344086021505
20130820,-3.409090909090897
20130821,-4.3956043956043995
20130822,3.157894736842113
20130823,-4.347826086956526
20130826,2.083333333333326
20130827,6.382978723404251
20130828,-6.818181818181814
20130829,-1.0638297872340388
20130830,5.263157894736842
20130902,0.0
20130903,-3.333333333333341
20130904,3.2258064516129106
20130905,-3.333333333333341
20130906,-3.2258064516128915
20130910,2.083333333333326
20130911,-4.255319148936174
20130912,-19.387755102040803
20130913,-15.38461538461539
20130916,9.629629629629635
20130917,7.377049180327858
20130918,-6.194690265486719
20130919,0.0
20130920,6.666666666666672
20130923,6.249999999999994
20130924,0.0
20130925,-0.952380952380949
20130926,-2.8301886792452895
20130927,2.752293577981658
20130930,0.0
20131001,-3.7735849056603805
20131003,-9.999999999999996
20131004,0.0
20131007,-1.6528925619834798
20131008,1.62601626016261
20131009,-2.4793388429752126
20131010,0.8064516129032229
20131011,1.62601626016261
20131014,1.6528925619834651
20131015,-0.8403361344537785
20131017,2.500000000000006
20131018,3.4188034188034067
20131021,-1.7699115044247724
20131022,-4.3478260869565215
20131023,0.0
20131024,1.6666666666666607
20131025,-0.8474576271186409
20131028,0.0
20131029,-0.8403361344537785
20131030,-4.166666666666666
20131031,4.0
20131101,0.0
20131103,0.0
20131105,-5.833333333333327
20131106,-6.2992125984252025
20131107,8.888888888888884
20131108,-4.878048780487801
20131111,3.875968992248062
20131112,-3.2258064516129057
20131113,5.468750000000008
20131114,0.0
20131118,-2.4793388429752126
20131119,-2.4193548387096686
20131120,-1.574803149606308
20131121,0.0
20131122,2.3255813953488427
20131125,0.7936507936507908
20131126,-1.5999999999999945
20131127,3.1496062992125875
20131128,-3.2520325203251916
20131129,-1.574803149606308
20131202,3.875968992248062
20131203,0.8064516129032229
20131204,-2.4390243902438935
20131205,1.5873015873015817
20131206,0.0
20131209,0.0
20131210,1.6129032258064602
20131211,0.0
20131212,2.459016393442614
20131213,0.8403361344537785
20131216,-1.6949152542372818
20131217,0.8333333333333304
20131218,2.5210084033613507
20131219,-0.8620689655172384
20131220,3.4188034188034067
20131223,-0.8849557522123862
20131224,-6.140350877192976
20131226,-5.785123966942158
20131227,-5.468749999999995
20131230,1.481481481481476
20131231,-1.5037593984962352
